epoch,train_mse,val_mse,selection_metric,diag_hr_abs_err,diag_morph_corr,diag_amp_ratio,diag_beats_ratio,lr,epoch_time_s,elapsed_s,peak_mem_MiB,is_best,best_epoch,no_improve,event
0,0.11854208606210621,0.1013413518667221,0.1013413518667221,nan,nan,0.0007673552026972175,0.0,0.001,72.50758309988305,72.50758309988305,20721.177734375,1,0,0,best
1,0.11722790402444926,0.09213374555110931,0.09213374555110931,11.598238253654232,0.1352693554901044,0.071144238114357,1.0132042253521127,0.001,72.67933901399374,145.1869221138768,20721.177734375,1,1,0,best
2,0.11446357298303735,0.10016211867332458,0.10016211867332458,18.145732774204042,0.23971169279093793,0.15218284726142883,0.6126760563380281,0.001,72.80060061300173,217.98752272687852,20721.177734375,0,1,1,
3,0.11360971416262063,0.0962483212351799,0.0962483212351799,41.578747133095845,0.2515881756434715,0.1208881139755249,0.18661971830985916,0.001,72.73506776988506,290.7225904967636,20721.177734375,0,1,2,
4,0.11305042291906747,0.09435804188251495,0.09435804188251495,17.467254817489053,0.384950699412247,0.19081050157546997,0.6910211267605634,0.001,72.77566950698383,363.4982600037474,20721.177734375,0,1,3,
5,0.11107677485455167,0.09800460934638977,0.09800460934638977,17.57892491963106,0.43785639277417493,0.1836894005537033,0.7209507042253521,0.001,72.76214190712199,436.2604019108694,20721.177734375,0,1,4,
6,0.11154332563958384,0.09213466942310333,0.09213466942310333,19.208008169511498,0.4695422312646822,0.2091282606124878,0.6875,0.001,72.81331279105507,509.0737147019245,20721.177734375,0,1,5,
7,0.11090355478227139,0.08876089006662369,0.08876089006662369,15.008892403387915,0.5089572485753597,0.20758315920829773,0.7711267605633803,0.001,72.80564642488025,581.8793611268047,20721.177734375,1,7,0,best
8,0.11085361682555893,0.08836355060338974,0.08836355060338974,11.998485387910646,0.5676740296113463,0.1832626909017563,0.8177816901408451,0.001,72.79349721316248,654.6728583399672,20721.177734375,1,8,0,best
9,0.11056769916957075,0.092286117374897,0.092286117374897,13.813561126629518,0.5186210983993017,0.18603038787841797,0.7790492957746479,0.001,72.84327745204791,727.5161357920151,20721.177734375,0,8,1,
10,0.1094006414779208,0.08696217089891434,0.08696217089891434,15.654914378268433,0.5383845170440064,0.18817223608493805,0.7632042253521126,0.001,72.79996326705441,800.3160990590695,20721.177734375,1,10,0,best
11,0.10916585603898221,0.08810079097747803,0.08810079097747803,14.561416437040895,0.5837415937148346,0.23586565256118774,0.7596830985915493,0.001,72.80217014695518,873.1182692060247,20721.177734375,0,10,1,
12,0.10931095105003227,0.09127984195947647,0.09127984195947647,13.7631743639632,0.5581726413068591,0.20220115780830383,0.7834507042253521,0.001,72.77086228621192,945.8891314922366,20721.177734375,0,10,2,
13,0.10971174778586085,0.09482762217521667,0.09482762217521667,13.359884258333729,0.6001729338542778,0.19238367676734924,0.8345070422535211,0.001,72.71745411888696,1018.6065856111236,20721.177734375,0,10,3,
14,0.10707735476846045,0.08474113047122955,0.08474113047122955,13.402071926630706,0.5549804409352206,0.23792436718940735,0.7984154929577465,0.001,72.84019880509004,1091.4467844162136,20721.177734375,1,14,0,best
15,0.10804170607165857,0.09020356833934784,0.09020356833934784,12.252832229754132,0.5783476091293467,0.28581702709198,0.8001760563380281,0.001,72.83383176010102,1164.2806161763147,20721.177734375,0,14,1,
16,0.10763742503794757,0.09040603786706924,0.09040603786706924,13.820788065345432,0.5246103271495065,0.1373097002506256,0.8107394366197183,0.001,72.79970628512092,1237.0803224614356,20721.177734375,0,14,2,
17,0.10795150223103436,0.09006660431623459,0.09006660431623459,12.39279205260489,0.583158674260882,0.22465389966964722,0.7808098591549296,0.001,72.75623608194292,1309.8365585433785,20721.177734375,0,14,3,
18,0.10732459016144276,0.09375236928462982,0.09375236928462982,12.873449267508974,0.5653081954694872,0.20467054843902588,0.7825704225352113,0.001,72.75022141705267,1382.5867799604312,20721.177734375,0,14,4,
19,0.10771370306611061,0.09026632457971573,0.09026632457971573,15.89350273684688,0.5188040119098126,0.24274875223636627,0.7059859154929577,0.001,72.74299481301568,1455.3297747734468,20721.177734375,0,14,5,
20,0.1069372795888635,0.09615252912044525,0.09615252912044525,13.669832303184794,0.5647076675158986,0.2651987671852112,0.7887323943661971,0.001,61.317165079992265,1516.646939853439,20702.357421875,0,14,6,
21,0.10626778263937343,0.08717487752437592,0.08717487752437592,14.862310174683582,0.5182376063650178,0.193816676735878,0.7394366197183099,0.001,72.76776604889892,1589.414705902338,20721.177734375,0,14,7,
22,0.10620210627940568,0.09518313407897949,0.09518313407897949,11.31894411693937,0.5881998608843577,0.2419583797454834,0.8001760563380281,0.001,72.83684048010036,1662.2515463824384,20721.177734375,0,14,8,
23,0.10729837380349636,0.08781737834215164,0.08781737834215164,12.32891029311328,0.5524065880808801,0.2224835455417633,0.733274647887324,0.001,72.81196290999651,1735.063509292435,20721.177734375,0,14,9,
24,0.10699384009296244,0.09049181640148163,0.09049181640148163,14.360407159370705,0.5358417312571848,0.2747293710708618,0.6936619718309859,0.001,72.81122464197688,1807.8747339344118,20721.177734375,0,14,10,
25,0.10731760348108682,0.09603704512119293,0.09603704512119293,13.222030547011276,0.5576827348016611,0.19877567887306213,0.7746478873239436,0.001,72.76548071601428,1880.640214650426,20721.177734375,0,14,11,
26,0.10793844390321862,0.08948422968387604,0.08948422968387604,12.758150248843096,0.5526774213929754,0.18712928891181946,0.7737676056338029,0.001,72.78639788995497,1953.426612540381,20721.177734375,0,14,12,
27,0.10655185024846683,0.08788320422172546,0.08788320422172546,14.274672353905894,0.5482426378754806,0.2295231819152832,0.7588028169014085,0.001,72.75999784492888,2026.18661038531,20721.177734375,0,14,13,
28,0.10497670329429887,0.0891476571559906,0.0891476571559906,13.722693240474632,0.5380692948759579,0.19722092151641846,0.7852112676056338,0.001,72.77906030905433,2098.9656706943642,20721.177734375,0,14,14,
29,0.10680565485222773,0.0871778279542923,0.0871778279542923,11.808199990594819,0.5616843668292059,0.23339718580245972,0.801056338028169,0.001,72.7900525140576,2171.755723208422,20721.177734375,0,14,15,
30,0.10636464939876036,0.09114954620599747,0.09114954620599747,13.393077235824785,0.5361800696634305,0.2275475412607193,0.7799295774647887,0.001,72.81953780306503,2244.575261011487,20721.177734375,0,14,16,
31,0.10427232574332844,0.08490893989801407,0.08490893989801407,12.834021980503433,0.5409283196974225,0.23538297414779663,0.8045774647887324,0.001,72.78902148106135,2317.364282492548,20721.177734375,0,14,17,
32,0.10697944916107438,0.08850105851888657,0.08850105851888657,11.597176302284398,0.5226714168488562,0.23392078280448914,0.8133802816901409,0.001,72.82175856688991,2390.186041059438,20721.177734375,0,14,18,
33,0.10419145670126785,0.08366949111223221,0.08366949111223221,12.978467781398258,0.5628150250786828,0.23988975584506989,0.8063380281690141,0.001,72.76058243401349,2462.9466234934516,20721.177734375,1,33,0,best
34,0.10554747273298827,0.08580192923545837,0.08580192923545837,13.008540016930557,0.5468904326089884,0.23082605004310608,0.7808098591549296,0.001,72.84792048786767,2535.7945439813193,20721.177734375,0,33,1,
35,0.1048327078873461,0.08787983655929565,0.08787983655929565,11.769516889755572,0.5420033159471775,0.24687041342258453,0.789612676056338,0.001,72.81040004314855,2608.604944024468,20721.177734375,0,33,2,
36,0.10488568578254093,0.08563127368688583,0.08563127368688583,11.984604192999415,0.5569040597457595,0.26066696643829346,0.7992957746478874,0.001,72.68712647096254,2681.2920704954304,20721.177734375,0,33,3,
37,0.10339942889457399,0.08989570289850235,0.08989570289850235,13.909576407278259,0.5644662050248471,0.23624780774116516,0.7579225352112676,0.001,72.85517984395847,2754.147250339389,20721.177734375,0,33,4,
38,0.10448832308704203,0.08782099932432175,0.08782099932432175,12.385833755822791,0.5584411603493291,0.22848808765411377,0.7931338028169014,0.001,72.83008203678764,2826.9773323761765,20721.177734375,0,33,5,
39,0.10320563756606796,0.08949950337409973,0.08949950337409973,12.015334948631944,0.5613602844467457,0.22515538334846497,0.7948943661971831,0.001,72.78886049217544,2899.766192868352,20721.177734375,0,33,6,
40,0.1043739604679021,0.0919158011674881,0.0919158011674881,15.529623274618467,0.5149383161130174,0.1982596516609192,0.7676056338028169,0.001,72.7863712538965,2972.5525641222484,20721.177734375,0,33,7,
41,0.1045403684097561,0.09052678197622299,0.09052678197622299,11.96140081062255,0.5807474386327177,0.24261066317558289,0.8089788732394366,0.001,61.32889936096035,3033.881463483209,20702.357421875,0,33,8,
42,0.10347777831960808,0.08698935061693192,0.08698935061693192,11.0103433711541,0.5418178502959644,0.25238287448883057,0.8116197183098591,0.001,72.85907148290426,3106.740534966113,20721.177734375,0,33,9,
43,0.1041570497168736,0.08655177056789398,0.08655177056789398,11.994134007375013,0.5395874573673963,0.20279741287231445,0.7992957746478874,0.001,72.8333842230495,3179.5739191891626,20721.177734375,0,33,10,
44,0.10302379466593266,0.08942540735006332,0.08942540735006332,10.709285464003933,0.5861867510660289,0.20487350225448608,0.8389084507042254,0.001,72.75200850795954,3252.325927697122,20721.177734375,0,33,11,
45,0.10427988574586132,0.08989211916923523,0.08989211916923523,10.344622942219084,0.6025555428225158,0.21504443883895874,0.8397887323943662,0.001,72.81255905795842,3325.1384867550805,20721.177734375,0,33,12,
46,0.10373500399291516,0.08569049835205078,0.08569049835205078,11.200604867159003,0.5509417026775645,0.2075003981590271,0.8283450704225352,0.001,72.8449663319625,3397.983453087043,20721.177734375,0,33,13,
47,0.10459183742376892,0.08747764676809311,0.08747764676809311,11.242604084044917,0.5817737980319726,0.2144940197467804,0.840669014084507,0.001,72.84287063591182,3470.826323722955,20721.177734375,0,33,14,
48,0.10520838204432617,0.0878155529499054,0.0878155529499054,10.222975014441976,0.5696367634384973,0.23512934148311615,0.8494718309859155,0.001,72.85099388705567,3543.6773176100105,20721.177734375,0,33,15,
49,0.10439055988734419,0.09128683805465698,0.09128683805465698,9.37370829366782,0.5920597861827465,0.23094037175178528,0.8529929577464789,0.001,72.79118912504055,3616.468506735051,20721.177734375,0,33,16,
50,0.10361161953346296,0.0880994126200676,0.0880994126200676,9.622938386755301,0.5920535339647575,0.21524609625339508,0.8626760563380281,0.001,72.82089167111553,3689.2893984061666,20721.177734375,0,33,17,
51,0.10471625300970945,0.08593732863664627,0.08593732863664627,8.296669206979352,0.5550549637950503,0.27867811918258667,0.8855633802816901,0.001,72.78908351296559,3762.078481919132,20721.177734375,0,33,18,
52,0.10359743843701753,0.0853731632232666,0.0853731632232666,11.793433385471179,0.6248648805073946,0.21427509188652039,0.8107394366197183,0.001,72.75835766713135,3834.8368395862635,20721.177734375,0,33,19,
53,0.10271210951561277,0.08757437765598297,0.08757437765598297,9.057675017669723,0.5846769235346096,0.23452118039131165,0.8767605633802817,0.001,72.75319938198663,3907.59003896825,20721.177734375,0,33,20,early_stop(patience=20)
