round,global_step,s,bin,n,h_mean,beta_mean,w_mean,effective_w_mean,delta2_mean,u_norm_mean,dudt_norm_mean,hdudt_norm_mean
1,218,0.996667,"[0.0,0.1)",1819,0.04855,1.0,0.00330172,0.00330172,393.6996,27.0868,26.335,1.275
1,218,0.996667,"[0.1,0.3)",2977,0.19143,1.0,0.00392048,0.00392048,310.8362,28.6482,22.9493,4.3089
1,218,0.996667,"[0.3,0.5)",1577,0.38637,1.0,0.0042435,0.0042435,288.3746,30.0105,18.1154,6.9434
1,218,0.996667,"[0.5,0.7)",526,0.578283,1.0,0.00419523,0.00419523,304.5089,30.2979,15.0744,8.645
1,218,0.996667,"[0.7,1.0)",51,0.756304,1.0,0.00425949,0.00425949,359.1959,30.3894,13.4105,10.146
1,218,0.996667,boundary(r=t),6949,0.0,1.0,0.00413932,0.00413932,311.5637,0.0,0.0,0.0
2,436,0.993333,"[0.0,0.1)",1879,0.049485,1.0,0.00426711,0.00426711,287.6437,29.5186,25.488,1.2416
2,436,0.993333,"[0.1,0.3)",2972,0.192918,1.0,0.00491599,0.00491599,234.85,30.6922,20.3212,3.7985
2,436,0.993333,"[0.3,0.5)",1530,0.387173,1.0,0.00557762,0.00557762,201.0123,31.3034,15.4896,5.9488
2,436,0.993333,"[0.5,0.7)",512,0.57703,1.0,0.00580541,0.00580541,198.3172,31.3343,13.9986,8.064
2,436,0.993333,"[0.7,1.0)",57,0.741757,1.0,0.00534235,0.00534235,269.1114,31.3285,15.4802,11.4747
2,436,0.993333,boundary(r=t),6949,0.0,1.0,0.00525023,0.00525023,230.2286,0.0,0.0,0.0
3,654,0.99,"[0.0,0.1)",1861,0.047526,1.0,0.0049537,0.0049537,237.9143,30.7909,31.4295,1.4614
3,654,0.99,"[0.1,0.3)",2914,0.193141,1.0,0.00526449,0.00526449,216.2856,31.7984,24.557,4.5691
3,654,0.99,"[0.3,0.5)",1590,0.386253,1.0,0.00576866,0.00576866,195.4111,32.186,17.6096,6.7262
3,654,0.99,"[0.5,0.7)",523,0.572718,1.0,0.00612516,0.00612516,188.4676,31.9022,15.593,8.9255
3,654,0.99,"[0.7,1.0)",62,0.752831,1.0,0.00516879,0.00516879,275.9973,31.3697,17.3797,13.108
3,654,0.99,boundary(r=t),6949,0.0,1.0,0.00582726,0.00582726,199.1543,0.0,0.0,0.0
4,872,0.986667,"[0.0,0.1)",1890,0.049586,1.0,0.00569669,0.00569669,207.9421,31.5278,32.6464,1.586
4,872,0.986667,"[0.1,0.3)",2911,0.193785,1.0,0.00555277,0.00555277,208.8882,32.1916,26.2219,4.8896
4,872,0.986667,"[0.3,0.5)",1529,0.38709,1.0,0.00591941,0.00591941,197.2607,32.358,17.8828,6.8462
4,872,0.986667,"[0.5,0.7)",561,0.575089,1.0,0.00634808,0.00634808,179.7902,32.0926,15.2277,8.748
4,872,0.986667,"[0.7,1.0)",59,0.742663,1.0,0.00665786,0.00665786,216.9286,31.7645,14.8586,11.0748
4,872,0.986667,boundary(r=t),6949,0.0,1.0,0.00630242,0.00630242,186.2376,0.0,0.0,0.0
5,1090,0.983333,"[0.0,0.1)",1830,0.050068,1.0,0.00591387,0.00591387,202.9793,31.7433,33.8949,1.6521
5,1090,0.983333,"[0.1,0.3)",2931,0.19314,1.0,0.00566056,0.00566056,209.1241,32.3046,27.2613,5.1173
5,1090,0.983333,"[0.3,0.5)",1602,0.387176,1.0,0.00585805,0.00585805,202.9776,32.1574,18.8363,7.1587
5,1090,0.983333,"[0.5,0.7)",538,0.575428,1.0,0.00623359,0.00623359,193.6804,32.0497,15.538,8.9551
5,1090,0.983333,"[0.7,1.0)",49,0.748578,1.0,0.00579684,0.00579684,250.1928,32.1433,17.4279,13.0699
5,1090,0.983333,boundary(r=t),6949,0.0,1.0,0.0065536,0.0065536,178.6642,0.0,0.0,0.0
6,1308,0.98,"[0.0,0.1)",1797,0.05017,1.0,0.00610279,0.00610279,197.1893,31.9112,35.4277,1.7457
6,1308,0.98,"[0.1,0.3)",3003,0.192743,1.0,0.00571104,0.00571104,209.0777,32.287,28.5452,5.3309
6,1308,0.98,"[0.3,0.5)",1560,0.386899,1.0,0.00589663,0.00589663,204.0552,32.3716,19.5898,7.4787
6,1308,0.98,"[0.5,0.7)",528,0.571551,1.0,0.00619892,0.00619892,189.4441,32.1956,16.1974,9.2537
6,1308,0.98,"[0.7,1.0)",62,0.747089,1.0,0.00607049,0.00607049,213.9794,32.3428,15.9392,11.8966
6,1308,0.98,boundary(r=t),6949,0.0,1.0,0.00659403,0.00659403,177.9535,0.0,0.0,0.0
7,1526,0.976667,"[0.0,0.1)",1812,0.049924,1.0,0.00621197,0.00621197,195.6985,31.9223,34.7862,1.7137
7,1526,0.976667,"[0.1,0.3)",2902,0.193999,1.0,0.00575644,0.00575644,208.8605,32.4034,28.5817,5.4145
7,1526,0.976667,"[0.3,0.5)",1646,0.388124,1.0,0.00602575,0.00602575,200.0995,32.4101,19.2043,7.3262
7,1526,0.976667,"[0.5,0.7)",530,0.57268,1.0,0.00654645,0.00654645,178.5645,32.3871,15.3686,8.8146
7,1526,0.976667,"[0.7,1.0)",60,0.741697,1.0,0.00651259,0.00651259,181.4423,31.6647,14.6994,10.9003
7,1526,0.976667,boundary(r=t),6949,0.0,1.0,0.00681914,0.00681914,172.1865,0.0,0.0,0.0
8,1744,0.973333,"[0.0,0.1)",1829,0.048183,1.0,0.00659106,0.00659106,181.5409,32.2253,33.8226,1.5972
8,1744,0.973333,"[0.1,0.3)",2921,0.191725,1.0,0.00576923,0.00576923,212.9708,32.4111,29.3339,5.5003
8,1744,0.973333,"[0.3,0.5)",1600,0.38643,1.0,0.00589408,0.00589408,210.7315,32.4004,20.1796,7.6714
8,1744,0.973333,"[0.5,0.7)",552,0.571405,1.0,0.00628413,0.00628413,188.5862,32.3673,16.1268,9.2108
8,1744,0.973333,"[0.7,1.0)",48,0.747945,1.0,0.00603872,0.00603872,216.128,32.1298,15.9478,11.9108
8,1744,0.973333,boundary(r=t),6949,0.0,1.0,0.00687772,0.00687772,170.6048,0.0,0.0,0.0
9,1962,0.97,"[0.0,0.1)",1801,0.050353,1.0,0.00646446,0.00646446,187.971,32.0384,34.7115,1.7155
9,1962,0.97,"[0.1,0.3)",2931,0.194611,1.0,0.00577963,0.00577963,213.7372,32.529,30.5246,5.8249
9,1962,0.97,"[0.3,0.5)",1611,0.387933,1.0,0.00591624,0.00591624,216.0881,32.5476,20.8027,7.8884
9,1962,0.97,"[0.5,0.7)",538,0.573259,1.0,0.00672215,0.00672215,174.713,32.3975,15.754,9.0131
9,1962,0.97,"[0.7,1.0)",69,0.746571,1.0,0.00603083,0.00603083,230.3029,32.0982,14.9832,11.1439
9,1962,0.97,boundary(r=t),6949,0.0,1.0,0.00705598,0.00705598,167.5514,0.0,0.0,0.0
10,2180,0.966667,"[0.0,0.1)",1807,0.049243,1.0,0.00659527,0.00659527,183.6779,32.3278,34.9173,1.6755
10,2180,0.966667,"[0.1,0.3)",2908,0.193044,1.0,0.00590301,0.00590301,212.462,32.5407,30.2804,5.772
10,2180,0.966667,"[0.3,0.5)",1629,0.388427,1.0,0.00595166,0.00595166,220.098,32.5903,20.9798,7.9966
10,2180,0.966667,"[0.5,0.7)",534,0.576414,1.0,0.00642121,0.00642121,182.9487,32.3635,15.5498,8.9452
10,2180,0.966667,"[0.7,1.0)",72,0.747844,1.0,0.00575847,0.00575847,235.1483,32.2911,15.5143,11.6107
10,2180,0.966667,boundary(r=t),6949,0.0,1.0,0.00711,0.00711,164.6777,0.0,0.0,0.0
11,2398,0.963333,"[0.0,0.1)",1805,0.049921,1.0,0.00674997,0.00674997,182.6658,32.2652,34.1513,1.6784
11,2398,0.963333,"[0.1,0.3)",2941,0.193672,1.0,0.0060022,0.0060022,208.4118,32.6076,29.4722,5.6217
11,2398,0.963333,"[0.3,0.5)",1602,0.386933,1.0,0.00585239,0.00585239,232.1146,32.5933,21.6459,8.2373
11,2398,0.963333,"[0.5,0.7)",540,0.577296,1.0,0.00675612,0.00675612,177.7646,32.4482,15.1576,8.7463
11,2398,0.963333,"[0.7,1.0)",62,0.744759,1.0,0.00613021,0.00613021,215.9916,31.6218,15.0654,11.2584
11,2398,0.963333,boundary(r=t),6949,0.0,1.0,0.00731165,0.00731165,161.5265,0.0,0.0,0.0
12,2616,0.96,"[0.0,0.1)",1779,0.049573,1.0,0.00690893,0.00690893,176.9231,32.3004,34.1801,1.6747
12,2616,0.96,"[0.1,0.3)",2976,0.191958,1.0,0.00613623,0.00613623,201.9456,32.6303,29.2975,5.5082
12,2616,0.96,"[0.3,0.5)",1620,0.386313,1.0,0.00585985,0.00585985,223.1534,32.6618,21.0086,7.9971
12,2616,0.96,"[0.5,0.7)",518,0.575737,1.0,0.00665352,0.00665352,183.3103,32.4952,15.33,8.7837
12,2616,0.96,"[0.7,1.0)",57,0.755434,1.0,0.00627816,0.00627816,347.4045,31.103,15.6628,11.8421
12,2616,0.96,boundary(r=t),6949,0.0,1.0,0.00728038,0.00728038,162.7987,0.0,0.0,0.0
13,2834,0.956667,"[0.0,0.1)",1839,0.049112,1.0,0.00694171,0.00694171,178.3349,32.2765,33.567,1.6114
13,2834,0.956667,"[0.1,0.3)",2968,0.194414,1.0,0.00601551,0.00601551,208.9697,32.566,29.7699,5.7297
13,2834,0.956667,"[0.3,0.5)",1561,0.385987,1.0,0.00568236,0.00568236,234.1878,32.6943,22.5533,8.5396
13,2834,0.956667,"[0.5,0.7)",515,0.576344,1.0,0.00648565,0.00648565,178.7745,32.4305,15.4465,8.8718
13,2834,0.956667,"[0.7,1.0)",67,0.753877,1.0,0.00576951,0.00576951,237.5455,32.3618,17.1096,12.9518
13,2834,0.956667,boundary(r=t),6949,0.0,1.0,0.00732515,0.00732515,160.7222,0.0,0.0,0.0
14,3052,0.953333,"[0.0,0.1)",1872,0.049798,1.0,0.00713885,0.00713885,173.8269,32.4354,33.6504,1.6612
14,3052,0.953333,"[0.1,0.3)",2883,0.19356,1.0,0.00604262,0.00604262,212.7494,32.6736,30.4648,5.8531
14,3052,0.953333,"[0.3,0.5)",1619,0.386234,1.0,0.00579992,0.00579992,232.3436,32.6533,22.2643,8.4086
14,3052,0.953333,"[0.5,0.7)",520,0.574871,1.0,0.00650355,0.00650355,183.7929,32.2422,15.8548,9.0815
14,3052,0.953333,"[0.7,1.0)",56,0.746605,1.0,0.00634507,0.00634507,274.1021,32.0823,16.9512,12.6703
14,3052,0.953333,boundary(r=t),6949,0.0,1.0,0.0074712,0.0074712,158.2624,0.0,0.0,0.0
15,3270,0.95,"[0.0,0.1)",1826,0.049616,1.0,0.00742033,0.00742033,169.7341,32.6264,34.0698,1.6573
15,3270,0.95,"[0.1,0.3)",2932,0.192485,1.0,0.006123,0.006123,208.3277,32.7465,29.9407,5.6986
15,3270,0.95,"[0.3,0.5)",1554,0.386708,1.0,0.0057755,0.0057755,240.0059,32.8088,22.7966,8.6112
15,3270,0.95,"[0.5,0.7)",591,0.573532,1.0,0.00639489,0.00639489,185.9686,32.6369,15.767,9.002
15,3270,0.95,"[0.7,1.0)",47,0.758452,1.0,0.00675492,0.00675492,202.362,31.9016,14.8846,11.343
15,3270,0.95,boundary(r=t),6949,0.0,1.0,0.00763199,0.00763199,156.2836,0.0,0.0,0.0
16,3488,0.946667,"[0.0,0.1)",1799,0.050341,1.0,0.00732113,0.00732113,169.734,32.523,34.3732,1.6994
16,3488,0.946667,"[0.1,0.3)",2907,0.193904,1.0,0.00619372,0.00619372,206.8786,32.7887,29.8509,5.7116
16,3488,0.946667,"[0.3,0.5)",1641,0.385822,1.0,0.00575848,0.00575848,238.0249,32.662,22.244,8.4123
16,3488,0.946667,"[0.5,0.7)",559,0.5741,1.0,0.00653609,0.00653609,182.466,32.527,15.6682,8.9656
16,3488,0.946667,"[0.7,1.0)",44,0.73942,1.0,0.0064142,0.0064142,189.5854,31.5145,13.068,9.6641
16,3488,0.946667,boundary(r=t),6949,0.0,1.0,0.00763821,0.00763821,156.0372,0.0,0.0,0.0
17,3706,0.943333,"[0.0,0.1)",1853,0.049286,1.0,0.00740756,0.00740756,167.8276,32.4582,34.4613,1.6682
17,3706,0.943333,"[0.1,0.3)",2948,0.19229,1.0,0.00627272,0.00627272,206.5299,32.8852,30.2692,5.7221
17,3706,0.943333,"[0.3,0.5)",1608,0.386246,1.0,0.00577822,0.00577822,242.3323,32.8004,22.7745,8.6368
17,3706,0.943333,"[0.5,0.7)",492,0.573981,1.0,0.00668466,0.00668466,177.2939,32.466,15.637,8.9404
17,3706,0.943333,"[0.7,1.0)",49,0.751532,1.0,0.00595315,0.00595315,205.8607,32.1093,15.7503,11.9084
17,3706,0.943333,boundary(r=t),6949,0.0,1.0,0.00770776,0.00770776,154.3381,0.0,0.0,0.0
18,3924,0.94,"[0.0,0.1)",1799,0.049409,1.0,0.00755773,0.00755773,164.2318,32.5142,34.5143,1.6674
18,3924,0.94,"[0.1,0.3)",2921,0.194104,1.0,0.00606694,0.00606694,211.1053,32.8729,31.1385,5.9891
18,3924,0.94,"[0.3,0.5)",1620,0.38691,1.0,0.00566799,0.00566799,250.2803,32.7094,23.4707,8.8791
18,3924,0.94,"[0.5,0.7)",551,0.572424,1.0,0.00651074,0.00651074,188.0942,32.814,15.9123,9.0624
18,3924,0.94,"[0.7,1.0)",59,0.753252,1.0,0.00645262,0.00645262,200.3241,31.7155,15.2149,11.485
18,3924,0.94,boundary(r=t),6949,0.0,1.0,0.00775915,0.00775915,153.1886,0.0,0.0,0.0
19,4142,0.936667,"[0.0,0.1)",1807,0.049899,1.0,0.00761335,0.00761335,164.5928,32.7282,34.0331,1.6566
19,4142,0.936667,"[0.1,0.3)",2964,0.191235,1.0,0.00615939,0.00615939,214.8662,32.8911,32.1476,6.1381
19,4142,0.936667,"[0.3,0.5)",1558,0.386195,1.0,0.00559195,0.00559195,256.4388,32.792,24.3319,9.2184
19,4142,0.936667,"[0.5,0.7)",557,0.574213,1.0,0.00659162,0.00659162,182.0487,32.4965,16.1133,9.1921
19,4142,0.936667,"[0.7,1.0)",64,0.747412,1.0,0.00579391,0.00579391,232.037,32.486,15.7456,11.7862
19,4142,0.936667,boundary(r=t),6949,0.0,1.0,0.00776653,0.00776653,152.4506,0.0,0.0,0.0
20,4360,0.933333,"[0.0,0.1)",1808,0.049612,1.0,0.00760035,0.00760035,162.4103,32.7408,33.8693,1.6392
20,4360,0.933333,"[0.1,0.3)",2916,0.19372,1.0,0.00614067,0.00614067,215.5886,32.9081,32.0871,6.209
20,4360,0.933333,"[0.3,0.5)",1636,0.386156,1.0,0.00552689,0.00552689,258.4918,32.8169,24.4302,9.2407
20,4360,0.933333,"[0.5,0.7)",541,0.575264,1.0,0.00630739,0.00630739,197.5832,32.6587,16.7368,9.6156
20,4360,0.933333,"[0.7,1.0)",49,0.754951,1.0,0.00580395,0.00580395,214.7812,32.3482,14.8783,11.2445
20,4360,0.933333,boundary(r=t),6949,0.0,1.0,0.00784096,0.00784096,151.7644,0.0,0.0,0.0
21,4578,0.93,"[0.0,0.1)",1876,0.048318,1.0,0.00765582,0.00765582,164.3342,32.6761,34.6883,1.6373
21,4578,0.93,"[0.1,0.3)",2903,0.192003,1.0,0.00626505,0.00626505,207.8792,32.9665,31.617,6.0525
21,4578,0.93,"[0.3,0.5)",1622,0.387554,1.0,0.00540964,0.00540964,268.2592,32.8627,25.0918,9.5443
21,4578,0.93,"[0.5,0.7)",494,0.573177,1.0,0.00638281,0.00638281,193.1574,32.5084,16.4803,9.39
21,4578,0.93,"[0.7,1.0)",55,0.750545,1.0,0.00584188,0.00584188,223.2984,31.956,16.3649,12.3014
21,4578,0.93,boundary(r=t),6949,0.0,1.0,0.00789163,0.00789163,151.4457,0.0,0.0,0.0
22,4796,0.926667,"[0.0,0.1)",1815,0.049082,1.0,0.00770247,0.00770247,164.0756,32.641,34.6143,1.664
22,4796,0.926667,"[0.1,0.3)",2928,0.193176,1.0,0.00628169,0.00628169,210.6474,33.0813,31.2855,6.045
22,4796,0.926667,"[0.3,0.5)",1639,0.385224,1.0,0.00549029,0.00549029,276.6445,32.7411,25.2098,9.5032
22,4796,0.926667,"[0.5,0.7)",512,0.574373,1.0,0.00672361,0.00672361,183.4615,32.6245,15.9381,9.0961
22,4796,0.926667,"[0.7,1.0)",56,0.75185,1.0,0.00627312,0.00627312,229.226,31.8767,15.0855,11.3529
22,4796,0.926667,boundary(r=t),6949,0.0,1.0,0.00802165,0.00802165,149.2507,0.0,0.0,0.0
23,5014,0.923333,"[0.0,0.1)",1836,0.048603,1.0,0.00763731,0.00763731,163.0498,32.7949,33.5981,1.5935
23,5014,0.923333,"[0.1,0.3)",2970,0.192376,1.0,0.00631892,0.00631892,208.8467,32.9331,31.519,6.0335
23,5014,0.923333,"[0.3,0.5)",1562,0.386844,1.0,0.00548983,0.00548983,273.2182,32.7736,25.0987,9.5359
23,5014,0.923333,"[0.5,0.7)",517,0.579312,1.0,0.00644154,0.00644154,194.2069,32.4827,16.5773,9.5388
23,5014,0.923333,"[0.7,1.0)",65,0.750547,1.0,0.00611584,0.00611584,236.7528,31.9028,15.6368,11.7191
23,5014,0.923333,boundary(r=t),6949,0.0,1.0,0.00800751,0.00800751,149.2177,0.0,0.0,0.0
24,5232,0.92,"[0.0,0.1)",1880,0.048478,1.0,0.00790323,0.00790323,156.3363,32.7212,33.7351,1.5842
24,5232,0.92,"[0.1,0.3)",2847,0.192917,1.0,0.00628046,0.00628046,207.1631,33.0012,30.7353,5.9175
24,5232,0.92,"[0.3,0.5)",1634,0.387307,1.0,0.0055813,0.0055813,262.8711,32.8258,24.4535,9.2913
24,5232,0.92,"[0.5,0.7)",547,0.573996,1.0,0.0062978,0.0062978,204.7275,32.6525,16.8388,9.6382
24,5232,0.92,"[0.7,1.0)",42,0.748191,1.0,0.00623378,0.00623378,242.3301,32.34,15.0992,11.2454
24,5232,0.92,boundary(r=t),6949,0.0,1.0,0.00808508,0.00808508,147.4294,0.0,0.0,0.0
25,5450,0.916667,"[0.0,0.1)",1875,0.048474,1.0,0.00788023,0.00788023,160.4058,32.6471,34.2708,1.6426
25,5450,0.916667,"[0.1,0.3)",2934,0.193294,1.0,0.00630262,0.00630262,211.6291,32.9504,32.0235,6.1918
25,5450,0.916667,"[0.3,0.5)",1623,0.386417,1.0,0.00553816,0.00553816,273.8394,32.8223,25.0342,9.497
25,5450,0.916667,"[0.5,0.7)",465,0.571759,1.0,0.00631092,0.00631092,208.8836,32.5583,16.7936,9.5514
25,5450,0.916667,"[0.7,1.0)",53,0.75346,1.0,0.00548414,0.00548414,225.6317,32.4753,15.8065,11.9022
25,5450,0.916667,boundary(r=t),6949,0.0,1.0,0.00817586,0.00817586,145.9714,0.0,0.0,0.0
26,5668,0.913333,"[0.0,0.1)",1872,0.049372,1.0,0.0080825,0.0080825,155.3873,32.864,32.9771,1.5952
26,5668,0.913333,"[0.1,0.3)",2894,0.192972,1.0,0.00632707,0.00632707,211.8219,33.0149,31.9069,6.1531
26,5668,0.913333,"[0.3,0.5)",1582,0.388909,1.0,0.00555428,0.00555428,279.3839,32.9221,25.4749,9.7217
26,5668,0.913333,"[0.5,0.7)",549,0.574618,1.0,0.0065341,0.0065341,203.2202,32.9262,16.9507,9.6656
26,5668,0.913333,"[0.7,1.0)",53,0.745967,1.0,0.00602319,0.00602319,225.9163,31.5746,14.3228,10.7219
26,5668,0.913333,boundary(r=t),6949,0.0,1.0,0.00812536,0.00812536,146.0784,0.0,0.0,0.0
27,5886,0.91,"[0.0,0.1)",1788,0.05066,1.0,0.00794109,0.00794109,158.6597,32.9483,33.9574,1.6867
27,5886,0.91,"[0.1,0.3)",2970,0.192774,1.0,0.00635491,0.00635491,210.3302,33.0803,31.9271,6.1544
27,5886,0.91,"[0.3,0.5)",1618,0.386901,1.0,0.00560484,0.00560484,265.9,32.8311,24.7036,9.3962
27,5886,0.91,"[0.5,0.7)",512,0.576208,1.0,0.00640213,0.00640213,192.1558,32.7834,16.5071,9.4616
27,5886,0.91,"[0.7,1.0)",62,0.746108,1.0,0.0066904,0.0066904,216.3799,32.511,14.8904,11.1465
27,5886,0.91,boundary(r=t),6949,0.0,1.0,0.00812722,0.00812722,146.7641,0.0,0.0,0.0
28,6104,0.906667,"[0.0,0.1)",1834,0.04907,1.0,0.0080492,0.0080492,158.5944,32.7824,33.3967,1.6356
28,6104,0.906667,"[0.1,0.3)",2884,0.194505,1.0,0.00643973,0.00643973,210.643,33.136,31.986,6.1822
28,6104,0.906667,"[0.3,0.5)",1587,0.388891,1.0,0.00551653,0.00551653,287.9868,33.0196,25.8047,9.8874
28,6104,0.906667,"[0.5,0.7)",587,0.575096,1.0,0.00637254,0.00637254,200.5873,32.7415,16.7086,9.5608
28,6104,0.906667,"[0.7,1.0)",58,0.744062,1.0,0.00601814,0.00601814,249.9703,33.1679,16.9963,12.5917
28,6104,0.906667,boundary(r=t),6949,0.0,1.0,0.00821447,0.00821447,145.8686,0.0,0.0,0.0
29,6322,0.903333,"[0.0,0.1)",1867,0.048977,1.0,0.00800063,0.00800063,157.0875,32.8695,33.5356,1.624
29,6322,0.903333,"[0.1,0.3)",2889,0.193663,1.0,0.00650103,0.00650103,202.4928,33.0693,31.0532,5.9763
29,6322,0.903333,"[0.3,0.5)",1614,0.386652,1.0,0.0054123,0.0054123,280.549,32.913,26.024,9.8526
29,6322,0.903333,"[0.5,0.7)",534,0.575281,1.0,0.00624687,0.00624687,202.7261,32.7375,16.8725,9.6408
29,6322,0.903333,"[0.7,1.0)",46,0.741138,1.0,0.00568858,0.00568858,231.0862,32.4073,15.6401,11.6222
29,6322,0.903333,boundary(r=t),6949,0.0,1.0,0.00820598,0.00820598,146.7665,0.0,0.0,0.0
30,6540,0.9,"[0.0,0.1)",1796,0.050653,1.0,0.00811054,0.00811054,154.2862,32.8856,32.2924,1.615
30,6540,0.9,"[0.1,0.3)",3005,0.192985,1.0,0.00646296,0.00646296,207.2615,32.9253,31.5852,6.0773
30,6540,0.9,"[0.3,0.5)",1582,0.388331,1.0,0.00554878,0.00554878,275.6349,32.8707,25.3816,9.7019
30,6540,0.9,"[0.5,0.7)",509,0.570821,1.0,0.00620947,0.00620947,214.8925,32.9644,17.283,9.7753
30,6540,0.9,"[0.7,1.0)",58,0.749461,1.0,0.00598462,0.00598462,233.3398,32.4998,16.5806,12.4322
30,6540,0.9,boundary(r=t),6949,0.0,1.0,0.00828667,0.00828667,143.9418,0.0,0.0,0.0
31,6758,0.896667,"[0.0,0.1)",1877,0.050045,1.0,0.0084512,0.0084512,152.0419,32.9555,33.4806,1.6482
31,6758,0.896667,"[0.1,0.3)",2862,0.192083,1.0,0.00643046,0.00643046,211.0441,33.122,32.402,6.2526
31,6758,0.896667,"[0.3,0.5)",1625,0.38937,1.0,0.00538405,0.00538405,288.6633,32.8705,26.2576,10.0042
31,6758,0.896667,"[0.5,0.7)",533,0.575773,1.0,0.00627882,0.00627882,221.7321,32.7531,17.2345,9.8562
31,6758,0.896667,"[0.7,1.0)",53,0.749933,1.0,0.00578363,0.00578363,322.1673,32.8689,16.5557,12.4773
31,6758,0.896667,boundary(r=t),6949,0.0,1.0,0.00828642,0.00828642,144.2216,0.0,0.0,0.0
32,6976,0.893333,"[0.0,0.1)",1811,0.049323,1.0,0.00824127,0.00824127,154.4921,32.8738,33.4804,1.633
32,6976,0.893333,"[0.1,0.3)",2964,0.192388,1.0,0.00653276,0.00653276,206.6394,33.0895,32.1626,6.1753
32,6976,0.893333,"[0.3,0.5)",1632,0.386008,1.0,0.00536782,0.00536782,296.7451,32.9312,26.8758,10.1669
32,6976,0.893333,"[0.5,0.7)",497,0.573987,1.0,0.00617513,0.00617513,211.7406,32.6359,17.2829,9.8511
32,6976,0.893333,"[0.7,1.0)",46,0.746467,1.0,0.00611278,0.00611278,243.2446,32.8139,16.8693,12.5784
32,6976,0.893333,boundary(r=t),6949,0.0,1.0,0.00834618,0.00834618,143.2969,0.0,0.0,0.0
33,7194,0.89,"[0.0,0.1)",1834,0.049627,1.0,0.00823313,0.00823313,152.5107,32.9557,32.7355,1.6017
33,7194,0.89,"[0.1,0.3)",2883,0.19367,1.0,0.00644252,0.00644252,207.8222,33.0266,31.8789,6.1617
33,7194,0.89,"[0.3,0.5)",1629,0.386539,1.0,0.00556901,0.00556901,274.2554,32.9411,25.7483,9.7395
33,7194,0.89,"[0.5,0.7)",538,0.574542,1.0,0.0063019,0.0063019,201.5777,32.5897,16.9556,9.695
33,7194,0.89,"[0.7,1.0)",66,0.757821,1.0,0.0056893,0.0056893,273.0945,32.0378,15.1616,11.552
33,7194,0.89,boundary(r=t),6949,0.0,1.0,0.00827294,0.00827294,144.5648,0.0,0.0,0.0
34,7412,0.886667,"[0.0,0.1)",1789,0.048662,1.0,0.00827072,0.00827072,154.9183,32.8567,33.2693,1.5887
34,7412,0.886667,"[0.1,0.3)",2982,0.191671,1.0,0.00650276,0.00650276,203.0524,33.0331,31.4306,6.0239
34,7412,0.886667,"[0.3,0.5)",1603,0.3873,1.0,0.00544473,0.00544473,277.9594,33.0106,26.0789,9.9285
34,7412,0.886667,"[0.5,0.7)",512,0.57658,1.0,0.00612705,0.00612705,205.9246,32.8101,17.6585,10.1167
34,7412,0.886667,"[0.7,1.0)",64,0.747488,1.0,0.00602882,0.00602882,251.844,32.136,15.6389,11.6772
34,7412,0.886667,boundary(r=t),6949,0.0,1.0,0.00829744,0.00829744,144.3633,0.0,0.0,0.0
35,7630,0.883333,"[0.0,0.1)",1850,0.049484,1.0,0.00837547,0.00837547,150.96,32.9231,33.6352,1.6179
35,7630,0.883333,"[0.1,0.3)",2972,0.193862,1.0,0.00648806,0.00648806,210.9956,33.0707,32.717,6.3816
35,7630,0.883333,"[0.3,0.5)",1530,0.386857,1.0,0.0053408,0.0053408,309.935,32.9107,27.4145,10.4205
35,7630,0.883333,"[0.5,0.7)",534,0.574105,1.0,0.00594768,0.00594768,229.9214,32.6781,18.2177,10.3796
35,7630,0.883333,"[0.7,1.0)",64,0.743082,1.0,0.00596179,0.00596179,225.9141,32.2539,15.8379,11.7641
35,7630,0.883333,boundary(r=t),6949,0.0,1.0,0.00834846,0.00834846,143.1678,0.0,0.0,0.0
36,7848,0.88,"[0.0,0.1)",1847,0.049176,1.0,0.00829759,0.00829759,153.1861,32.911,33.4669,1.623
36,7848,0.88,"[0.1,0.3)",2930,0.194712,1.0,0.00649094,0.00649094,213.7624,33.0482,32.9503,6.4462
36,7848,0.88,"[0.3,0.5)",1593,0.386402,1.0,0.0054951,0.0054951,291.8689,32.9575,26.5851,10.0709
36,7848,0.88,"[0.5,0.7)",523,0.578272,1.0,0.00598976,0.00598976,224.2224,32.7393,17.8476,10.2266
36,7848,0.88,"[0.7,1.0)",57,0.747521,1.0,0.0052929,0.0052929,313.5064,33.172,18.0859,13.5518
36,7848,0.88,boundary(r=t),6949,0.0,1.0,0.00843605,0.00843605,142.1958,0.0,0.0,0.0
37,8066,0.876667,"[0.0,0.1)",1809,0.049959,1.0,0.0084383,0.0084383,150.2733,32.9492,32.3394,1.564
37,8066,0.876667,"[0.1,0.3)",2951,0.193861,1.0,0.0066331,0.0066331,205.2277,33.0819,31.3565,6.1196
37,8066,0.876667,"[0.3,0.5)",1613,0.387494,1.0,0.0053869,0.0053869,289.2634,32.9249,26.4401,10.0397
37,8066,0.876667,"[0.5,0.7)",520,0.574532,1.0,0.00608244,0.00608244,204.6764,32.6298,16.9294,9.6413
37,8066,0.876667,"[0.7,1.0)",57,0.74703,1.0,0.00665041,0.00665041,203.6846,32.1602,13.6132,10.126
37,8066,0.876667,boundary(r=t),6949,0.0,1.0,0.00849598,0.00849598,140.5336,0.0,0.0,0.0
38,8284,0.873333,"[0.0,0.1)",1792,0.049721,1.0,0.00827188,0.00827188,153.9647,32.9773,33.143,1.6124
38,8284,0.873333,"[0.1,0.3)",2968,0.193202,1.0,0.00659879,0.00659879,204.3584,32.9943,31.8912,6.2066
38,8284,0.873333,"[0.3,0.5)",1593,0.38654,1.0,0.00532724,0.00532724,300.3276,33.0376,27.4322,10.3796
38,8284,0.873333,"[0.5,0.7)",537,0.574133,1.0,0.00632516,0.00632516,218.5069,32.7789,17.5875,10.0609
38,8284,0.873333,"[0.7,1.0)",60,0.760625,1.0,0.0053792,0.0053792,343.1583,32.5981,18.7327,14.3403
38,8284,0.873333,boundary(r=t),6949,0.0,1.0,0.008536,0.008536,141.6888,0.0,0.0,0.0
39,8502,0.87,"[0.0,0.1)",1787,0.049135,1.0,0.00856938,0.00856938,148.7595,33.0417,32.3086,1.5658
39,8502,0.87,"[0.1,0.3)",2861,0.192172,1.0,0.00671253,0.00671253,204.3844,33.1724,31.7096,6.1272
39,8502,0.87,"[0.3,0.5)",1691,0.385344,1.0,0.00536586,0.00536586,302.055,33.0733,27.2591,10.299
39,8502,0.87,"[0.5,0.7)",552,0.57637,1.0,0.00619009,0.00619009,217.5741,32.7076,17.5111,10.0583
39,8502,0.87,"[0.7,1.0)",59,0.755812,1.0,0.00588728,0.00588728,249.1369,32.651,15.9362,12.0408
39,8502,0.87,boundary(r=t),6949,0.0,1.0,0.00853992,0.00853992,141.6648,0.0,0.0,0.0
40,8720,0.866667,"[0.0,0.1)",1799,0.049784,1.0,0.00860409,0.00860409,148.9919,32.9942,32.665,1.5929
40,8720,0.866667,"[0.1,0.3)",2941,0.191074,1.0,0.0067204,0.0067204,203.42,33.1782,32.2882,6.1653
40,8720,0.866667,"[0.3,0.5)",1587,0.38636,1.0,0.00542595,0.00542595,309.3727,33.0148,28.0086,10.5492
40,8720,0.866667,"[0.5,0.7)",569,0.574588,1.0,0.00617569,0.00617569,208.6739,32.6208,17.3604,9.9005
40,8720,0.866667,"[0.7,1.0)",54,0.753713,1.0,0.00656422,0.00656422,245.3068,32.3859,15.3632,11.5951
40,8720,0.866667,boundary(r=t),6949,0.0,1.0,0.00859617,0.00859617,140.4169,0.0,0.0,0.0
41,8938,0.863333,"[0.0,0.1)",1843,0.049071,1.0,0.0084484,0.0084484,151.6299,33.0224,33.2696,1.5813
41,8938,0.863333,"[0.1,0.3)",2950,0.194131,1.0,0.00649095,0.00649095,212.6911,33.1462,33.2093,6.4674
41,8938,0.863333,"[0.3,0.5)",1568,0.387865,1.0,0.00535347,0.00535347,314.8646,33.0379,28.0385,10.6639
41,8938,0.863333,"[0.5,0.7)",524,0.576423,1.0,0.00633171,0.00633171,215.9227,32.8079,17.4632,9.9966
41,8938,0.863333,"[0.7,1.0)",65,0.747426,1.0,0.00574039,0.00574039,251.8852,32.8253,15.3268,11.478
41,8938,0.863333,boundary(r=t),6949,0.0,1.0,0.00858383,0.00858383,139.9072,0.0,0.0,0.0
42,9156,0.86,"[0.0,0.1)",1892,0.049981,1.0,0.00853882,0.00853882,149.2121,33.0649,33.2944,1.6306
42,9156,0.86,"[0.1,0.3)",2934,0.193505,1.0,0.00653964,0.00653964,210.5857,33.2359,32.7373,6.3819
42,9156,0.86,"[0.3,0.5)",1566,0.389005,1.0,0.00541189,0.00541189,305.9691,32.9603,27.3778,10.4631
42,9156,0.86,"[0.5,0.7)",501,0.572769,1.0,0.00635416,0.00635416,201.4354,32.6633,17.0355,9.672
42,9156,0.86,"[0.7,1.0)",57,0.742572,1.0,0.00564572,0.00564572,322.4358,33.3681,17.4666,12.9623
42,9156,0.86,boundary(r=t),6949,0.0,1.0,0.00866301,0.00866301,138.487,0.0,0.0,0.0
43,9374,0.856667,"[0.0,0.1)",1806,0.049729,1.0,0.00849932,0.00849932,152.1389,32.9032,32.3654,1.5555
43,9374,0.856667,"[0.1,0.3)",2882,0.194042,1.0,0.00663767,0.00663767,206.2875,33.0685,31.8451,6.2281
43,9374,0.856667,"[0.3,0.5)",1634,0.38764,1.0,0.00540236,0.00540236,301.3258,33.1051,26.906,10.2077
43,9374,0.856667,"[0.5,0.7)",565,0.576656,1.0,0.00613484,0.00613484,223.77,32.6761,17.4388,9.9539
43,9374,0.856667,"[0.7,1.0)",63,0.747552,1.0,0.00637611,0.00637611,253.7379,31.8519,15.2648,11.3896
43,9374,0.856667,boundary(r=t),6949,0.0,1.0,0.00863683,0.00863683,140.4081,0.0,0.0,0.0
44,9592,0.853333,"[0.0,0.1)",1775,0.049445,1.0,0.00867119,0.00867119,148.7842,32.9029,31.9978,1.5345
44,9592,0.853333,"[0.1,0.3)",2959,0.193195,1.0,0.00678428,0.00678428,200.9929,33.1587,31.5919,6.1217
44,9592,0.853333,"[0.3,0.5)",1629,0.384816,1.0,0.00521217,0.00521217,305.7025,33.1236,28.1103,10.5722
44,9592,0.853333,"[0.5,0.7)",536,0.574634,1.0,0.00621571,0.00621571,210.2623,32.6699,17.5028,9.9935
44,9592,0.853333,"[0.7,1.0)",51,0.751872,1.0,0.00687707,0.00687707,195.1419,32.5173,14.4919,10.8774
44,9592,0.853333,boundary(r=t),6949,0.0,1.0,0.00867437,0.00867437,138.7887,0.0,0.0,0.0
45,9810,0.85,"[0.0,0.1)",1807,0.049661,1.0,0.0087848,0.0087848,146.157,33.0067,32.622,1.5792
45,9810,0.85,"[0.1,0.3)",2942,0.194171,1.0,0.00676397,0.00676397,205.151,33.1611,31.8903,6.2401
45,9810,0.85,"[0.3,0.5)",1562,0.38445,1.0,0.00536741,0.00536741,299.2403,33.0689,27.8146,10.478
45,9810,0.85,"[0.5,0.7)",581,0.574391,1.0,0.00600417,0.00600417,221.9948,33.0282,17.8575,10.1988
45,9810,0.85,"[0.7,1.0)",58,0.746265,1.0,0.00621808,0.00621808,260.0816,32.3216,16.4496,12.2767
45,9810,0.85,boundary(r=t),6949,0.0,1.0,0.00863227,0.00863227,139.9385,0.0,0.0,0.0
46,10028,0.846667,"[0.0,0.1)",1867,0.050065,1.0,0.0084802,0.0084802,147.6103,33.0679,33.8069,1.6727
46,10028,0.846667,"[0.1,0.3)",2936,0.192804,1.0,0.00667209,0.00667209,211.8498,33.1488,32.37,6.3402
46,10028,0.846667,"[0.3,0.5)",1549,0.388744,1.0,0.00533174,0.00533174,304.6647,33.0247,27.9092,10.6455
46,10028,0.846667,"[0.5,0.7)",536,0.57631,1.0,0.00595899,0.00595899,241.6955,32.939,18.9468,10.8564
46,10028,0.846667,"[0.7,1.0)",62,0.743981,1.0,0.00536938,0.00536938,290.1145,32.8129,17.3629,12.954
46,10028,0.846667,boundary(r=t),6949,0.0,1.0,0.00878871,0.00878871,138.0528,0.0,0.0,0.0
47,10246,0.843333,"[0.0,0.1)",1842,0.048368,1.0,0.00870314,0.00870314,146.5529,33.0386,33.6932,1.6165
47,10246,0.843333,"[0.1,0.3)",2858,0.191836,1.0,0.00659803,0.00659803,214.4018,33.2238,33.439,6.4916
47,10246,0.843333,"[0.3,0.5)",1626,0.385547,1.0,0.00530735,0.00530735,300.1867,32.9298,27.8212,10.4803
47,10246,0.843333,"[0.5,0.7)",558,0.575364,1.0,0.00594963,0.00594963,226.2516,33.0017,18.5788,10.605
47,10246,0.843333,"[0.7,1.0)",66,0.759175,1.0,0.00497577,0.00497577,331.5695,32.9305,19.0496,14.4919
47,10246,0.843333,boundary(r=t),6949,0.0,1.0,0.00868764,0.00868764,139.1165,0.0,0.0,0.0
48,10464,0.84,"[0.0,0.1)",1805,0.04996,1.0,0.00851381,0.00851381,149.2397,32.9183,33.3879,1.6306
48,10464,0.84,"[0.1,0.3)",2886,0.190873,1.0,0.00675032,0.00675032,202.8935,33.1928,32.0068,6.1427
48,10464,0.84,"[0.3,0.5)",1652,0.389685,1.0,0.00536532,0.00536532,326.7757,33.1546,28.6774,10.9569
48,10464,0.84,"[0.5,0.7)",548,0.574936,1.0,0.00615859,0.00615859,220.9435,32.8028,18.0275,10.2908
48,10464,0.84,"[0.7,1.0)",59,0.756362,1.0,0.00605878,0.00605878,315.9891,32.6709,16.768,12.7036
48,10464,0.84,boundary(r=t),6949,0.0,1.0,0.0087077,0.0087077,138.1452,0.0,0.0,0.0
49,10682,0.836667,"[0.0,0.1)",1827,0.049674,1.0,0.00895425,0.00895425,143.4268,33.0541,32.2541,1.545
49,10682,0.836667,"[0.1,0.3)",2927,0.192893,1.0,0.00666436,0.00666436,209.9016,33.1886,32.8153,6.415
49,10682,0.836667,"[0.3,0.5)",1627,0.38388,1.0,0.00516921,0.00516921,329.4527,33.1697,29.6059,11.1525
49,10682,0.836667,"[0.5,0.7)",509,0.571447,1.0,0.0061932,0.0061932,227.3524,32.7438,18.454,10.4525
49,10682,0.836667,"[0.7,1.0)",60,0.751457,1.0,0.00638536,0.00638536,200.3926,32.4945,14.7392,11.0497
49,10682,0.836667,boundary(r=t),6949,0.0,1.0,0.00873704,0.00873704,138.2979,0.0,0.0,0.0
50,10900,0.833333,"[0.0,0.1)",1828,0.050815,1.0,0.00869106,0.00869106,146.6868,33.1265,32.179,1.5743
50,10900,0.833333,"[0.1,0.3)",2884,0.192912,1.0,0.00673633,0.00673633,207.7596,33.1423,32.2648,6.2917
50,10900,0.833333,"[0.3,0.5)",1637,0.385598,1.0,0.00520351,0.00520351,326.2276,33.2104,29.4166,11.0936
50,10900,0.833333,"[0.5,0.7)",546,0.57405,1.0,0.00605342,0.00605342,234.2732,32.8844,18.2695,10.3945
50,10900,0.833333,"[0.7,1.0)",55,0.750995,1.0,0.00625795,0.00625795,213.0859,32.4741,14.9806,11.2057
50,10900,0.833333,boundary(r=t),6949,0.0,1.0,0.00886443,0.00886443,136.1501,0.0,0.0,0.0
51,11118,0.83,"[0.0,0.1)",1829,0.050202,1.0,0.00887167,0.00887167,145.7087,33.012,32.8149,1.5997
51,11118,0.83,"[0.1,0.3)",2882,0.19281,1.0,0.00668076,0.00668076,213.4768,33.1139,33.0065,6.4553
51,11118,0.83,"[0.3,0.5)",1649,0.386678,1.0,0.00520956,0.00520956,333.8993,33.125,29.3988,11.1343
51,11118,0.83,"[0.5,0.7)",527,0.573891,1.0,0.00593299,0.00593299,229.5066,32.9532,18.933,10.8284
51,11118,0.83,"[0.7,1.0)",63,0.743279,1.0,0.00595771,0.00595771,223.6171,32.1831,16.5501,12.2764
51,11118,0.83,boundary(r=t),6949,0.0,1.0,0.00879019,0.00879019,137.0377,0.0,0.0,0.0
52,11336,0.826667,"[0.0,0.1)",1870,0.048753,1.0,0.00901202,0.00901202,144.8488,33.0656,33.0422,1.5656
52,11336,0.826667,"[0.1,0.3)",2885,0.190947,1.0,0.00685135,0.00685135,207.308,33.2106,32.3795,6.249
52,11336,0.826667,"[0.3,0.5)",1630,0.386171,1.0,0.00528826,0.00528826,315.9556,33.208,28.6065,10.8495
52,11336,0.826667,"[0.5,0.7)",511,0.575564,1.0,0.00631755,0.00631755,232.974,32.8448,18.1728,10.3923
52,11336,0.826667,"[0.7,1.0)",54,0.754811,1.0,0.00613433,0.00613433,249.0159,32.9042,16.0573,12.1387
52,11336,0.826667,boundary(r=t),6949,0.0,1.0,0.00890427,0.00890427,135.746,0.0,0.0,0.0
53,11554,0.823333,"[0.0,0.1)",1753,0.049836,1.0,0.00883866,0.00883866,147.3355,33.0741,33.2353,1.6092
53,11554,0.823333,"[0.1,0.3)",3001,0.191864,1.0,0.00681996,0.00681996,207.6128,33.3071,32.1079,6.2189
53,11554,0.823333,"[0.3,0.5)",1575,0.388707,1.0,0.0053537,0.0053537,321.4333,33.1386,28.0408,10.752
53,11554,0.823333,"[0.5,0.7)",553,0.573917,1.0,0.00605362,0.00605362,219.3558,33.0274,17.8114,10.1623
53,11554,0.823333,"[0.7,1.0)",68,0.742654,1.0,0.00544893,0.00544893,326.4443,32.6297,18.9369,14.1694
53,11554,0.823333,boundary(r=t),6949,0.0,1.0,0.00894925,0.00894925,135.3428,0.0,0.0,0.0
54,11772,0.82,"[0.0,0.1)",1812,0.049096,1.0,0.00897323,0.00897323,143.9059,33.0197,32.0767,1.5369
54,11772,0.82,"[0.1,0.3)",2888,0.192246,1.0,0.00682309,0.00682309,209.6352,33.1594,32.2146,6.3039
54,11772,0.82,"[0.3,0.5)",1607,0.38722,1.0,0.00507094,0.00507094,343.7232,33.15,30.3425,11.4859
54,11772,0.82,"[0.5,0.7)",579,0.570229,1.0,0.00600212,0.00600212,228.6348,32.9784,18.1556,10.2999
54,11772,0.82,"[0.7,1.0)",64,0.748507,1.0,0.0058022,0.0058022,265.4535,32.4503,16.6094,12.5698
54,11772,0.82,boundary(r=t),6949,0.0,1.0,0.00897624,0.00897624,135.3474,0.0,0.0,0.0
55,11990,0.816667,"[0.0,0.1)",1841,0.049885,1.0,0.00891957,0.00891957,143.1449,32.9844,32.5351,1.5786
55,11990,0.816667,"[0.1,0.3)",2940,0.193544,1.0,0.00679656,0.00679656,209.0659,33.3437,32.2072,6.3242
55,11990,0.816667,"[0.3,0.5)",1595,0.387387,1.0,0.00523,0.00523,341.9824,32.889,29.2583,11.0964
55,11990,0.816667,"[0.5,0.7)",534,0.575315,1.0,0.00594952,0.00594952,234.8455,32.8454,18.5622,10.5868
55,11990,0.816667,"[0.7,1.0)",40,0.742204,1.0,0.00610578,0.00610578,259.2945,32.5001,16.3449,12.139
55,11990,0.816667,boundary(r=t),6949,0.0,1.0,0.00896961,0.00896961,136.8679,0.0,0.0,0.0
56,12208,0.813333,"[0.0,0.1)",1848,0.048685,1.0,0.00898472,0.00898472,142.5149,33.1703,33.2576,1.5761
56,12208,0.813333,"[0.1,0.3)",2972,0.193532,1.0,0.00675221,0.00675221,213.4641,33.1943,32.9202,6.4624
56,12208,0.813333,"[0.3,0.5)",1569,0.386957,1.0,0.00529533,0.00529533,306.2673,33.0655,28.6387,10.8515
56,12208,0.813333,"[0.5,0.7)",505,0.575073,1.0,0.00599421,0.00599421,225.3488,32.9414,17.9697,10.2689
56,12208,0.813333,"[0.7,1.0)",56,0.739895,1.0,0.00560078,0.00560078,357.0569,32.4992,18.7782,13.9071
56,12208,0.813333,boundary(r=t),6949,0.0,1.0,0.0090368,0.0090368,134.5452,0.0,0.0,0.0
57,12426,0.81,"[0.0,0.1)",1906,0.0502,1.0,0.00903233,0.00903233,142.3235,33.1838,32.5829,1.5943
57,12426,0.81,"[0.1,0.3)",2873,0.190475,1.0,0.00674278,0.00674278,207.3489,33.235,32.1747,6.1973
57,12426,0.81,"[0.3,0.5)",1591,0.385733,1.0,0.00516473,0.00516473,336.1766,33.1509,29.9589,11.3722
57,12426,0.81,"[0.5,0.7)",535,0.580176,1.0,0.00623164,0.00623164,220.5895,32.6941,17.6677,10.18
57,12426,0.81,"[0.7,1.0)",45,0.739284,1.0,0.00536382,0.00536382,786.6437,32.6683,20.7106,15.6014
57,12426,0.81,boundary(r=t),6949,0.0,1.0,0.0089488,0.0089488,136.506,0.0,0.0,0.0
58,12644,0.806667,"[0.0,0.1)",1860,0.048833,1.0,0.00888217,0.00888217,146.2848,33.0158,33.8634,1.5906
58,12644,0.806667,"[0.1,0.3)",2871,0.19221,1.0,0.00687262,0.00687262,210.3651,33.2187,32.8156,6.3905
58,12644,0.806667,"[0.3,0.5)",1608,0.38541,1.0,0.00519819,0.00519819,351.422,33.1056,30.2819,11.4837
58,12644,0.806667,"[0.5,0.7)",557,0.575896,1.0,0.00592632,0.00592632,246.9471,32.9295,18.7497,10.7164
58,12644,0.806667,"[0.7,1.0)",54,0.751645,1.0,0.00581153,0.00581153,263.6716,32.5624,17.024,12.8103
58,12644,0.806667,boundary(r=t),6949,0.0,1.0,0.00894196,0.00894196,135.6184,0.0,0.0,0.0
59,12862,0.803333,"[0.0,0.1)",1838,0.051147,1.0,0.00894743,0.00894743,143.2845,33.0772,33.1367,1.6546
59,12862,0.803333,"[0.1,0.3)",2969,0.19194,1.0,0.00680859,0.00680859,208.957,33.3082,32.8206,6.3639
59,12862,0.803333,"[0.3,0.5)",1549,0.386293,1.0,0.00517271,0.00517271,366.1337,32.9788,30.9656,11.7303
59,12862,0.803333,"[0.5,0.7)",521,0.576065,1.0,0.00598586,0.00598586,233.4915,33.125,18.5126,10.6048
59,12862,0.803333,"[0.7,1.0)",73,0.745752,1.0,0.00553357,0.00553357,286.9496,32.9174,17.8521,13.3567
59,12862,0.803333,boundary(r=t),6949,0.0,1.0,0.00899912,0.00899912,135.6751,0.0,0.0,0.0
60,13080,0.8,"[0.0,0.1)",1806,0.049404,1.0,0.00904906,0.00904906,143.3251,33.2063,33.5512,1.6149
60,13080,0.8,"[0.1,0.3)",2960,0.191905,1.0,0.00698326,0.00698326,200.1321,33.2805,31.7382,6.1411
60,13080,0.8,"[0.3,0.5)",1584,0.387816,1.0,0.00512155,0.00512155,347.6221,33.0221,30.2898,11.5486
60,13080,0.8,"[0.5,0.7)",532,0.577051,1.0,0.00597572,0.00597572,247.6381,32.8892,18.9954,10.8261
60,13080,0.8,"[0.7,1.0)",68,0.755857,1.0,0.00603668,0.00603668,248.6105,32.2215,16.0204,12.1169
60,13080,0.8,boundary(r=t),6949,0.0,1.0,0.00899071,0.00899071,135.4035,0.0,0.0,0.0
61,13298,0.796667,"[0.0,0.1)",1821,0.049969,1.0,0.00885731,0.00885731,145.9736,33.1263,33.4705,1.6189
61,13298,0.796667,"[0.1,0.3)",2930,0.192235,1.0,0.00680309,0.00680309,210.6261,33.1746,32.3651,6.3291
61,13298,0.796667,"[0.3,0.5)",1601,0.387292,1.0,0.0053307,0.0053307,336.6668,33.1218,29.6388,11.3135
61,13298,0.796667,"[0.5,0.7)",540,0.574494,1.0,0.00618201,0.00618201,231.7558,32.9659,18.4498,10.5298
61,13298,0.796667,"[0.7,1.0)",58,0.751024,1.0,0.00541502,0.00541502,257.7619,33.2671,16.8467,12.6271
61,13298,0.796667,boundary(r=t),6949,0.0,1.0,0.00903925,0.00903925,134.6477,0.0,0.0,0.0
62,13516,0.793333,"[0.0,0.1)",1791,0.050084,1.0,0.00891358,0.00891358,144.7584,33.1565,32.8454,1.6117
62,13516,0.793333,"[0.1,0.3)",3003,0.194713,1.0,0.00684604,0.00684604,209.5453,33.2506,32.774,6.472
62,13516,0.793333,"[0.3,0.5)",1592,0.387566,1.0,0.00513877,0.00513877,343.1815,33.1659,30.2472,11.4956
62,13516,0.793333,"[0.5,0.7)",520,0.575845,1.0,0.00595653,0.00595653,241.3296,33.0024,18.5005,10.6036
62,13516,0.793333,"[0.7,1.0)",44,0.751131,1.0,0.00535179,0.00535179,248.0378,33.272,16.9404,12.7887
62,13516,0.793333,boundary(r=t),6949,0.0,1.0,0.00910711,0.00910711,134.8717,0.0,0.0,0.0
63,13734,0.79,"[0.0,0.1)",1853,0.050194,1.0,0.00890432,0.00890432,144.5152,33.1401,33.7554,1.6455
63,13734,0.79,"[0.1,0.3)",2888,0.191115,1.0,0.00684692,0.00684692,207.6844,33.3714,32.776,6.357
63,13734,0.79,"[0.3,0.5)",1614,0.384968,1.0,0.00531279,0.00531279,334.4353,33.1256,29.6617,11.2637
63,13734,0.79,"[0.5,0.7)",536,0.576763,1.0,0.0057995,0.0057995,247.0467,32.9023,19.1089,10.952
63,13734,0.79,"[0.7,1.0)",59,0.741375,1.0,0.00569979,0.00569979,252.0532,32.9442,16.2073,12.0935
63,13734,0.79,boundary(r=t),6949,0.0,1.0,0.00896544,0.00896544,135.5597,0.0,0.0,0.0
64,13952,0.786667,"[0.0,0.1)",1819,0.049432,1.0,0.00912224,0.00912224,140.5764,33.2007,32.5236,1.5888
64,13952,0.786667,"[0.1,0.3)",2999,0.193633,1.0,0.00684076,0.00684076,206.8675,33.1825,32.5012,6.3536
64,13952,0.786667,"[0.3,0.5)",1550,0.385895,1.0,0.00525355,0.00525355,352.2892,33.101,30.1578,11.4555
64,13952,0.786667,"[0.5,0.7)",517,0.577056,1.0,0.00626183,0.00626183,219.0648,32.8857,17.9639,10.2999
64,13952,0.786667,"[0.7,1.0)",65,0.748173,1.0,0.00542017,0.00542017,283.2623,32.5026,17.4398,13.0959
64,13952,0.786667,boundary(r=t),6949,0.0,1.0,0.00896536,0.00896536,134.9053,0.0,0.0,0.0
65,14170,0.783333,"[0.0,0.1)",1858,0.049287,1.0,0.00905226,0.00905226,141.0118,33.0926,32.6259,1.5732
65,14170,0.783333,"[0.1,0.3)",2897,0.194634,1.0,0.00685093,0.00685093,208.3362,33.2555,32.2245,6.3544
65,14170,0.783333,"[0.3,0.5)",1623,0.386597,1.0,0.00524163,0.00524163,360.825,33.1123,30.5501,11.616
65,14170,0.783333,"[0.5,0.7)",522,0.577613,1.0,0.00598031,0.00598031,225.0355,32.9885,18.1669,10.4196
65,14170,0.783333,"[0.7,1.0)",50,0.748887,1.0,0.00578282,0.00578282,297.8899,32.1126,17.553,13.2938
65,14170,0.783333,boundary(r=t),6949,0.0,1.0,0.00920226,0.00920226,133.6227,0.0,0.0,0.0
66,14388,0.78,"[0.0,0.1)",1812,0.049209,1.0,0.00896557,0.00896557,142.6004,33.0898,32.9894,1.5748
66,14388,0.78,"[0.1,0.3)",2914,0.193539,1.0,0.0068314,0.0068314,203.4399,33.2343,32.0545,6.2639
66,14388,0.78,"[0.3,0.5)",1629,0.383528,1.0,0.00518098,0.00518098,341.7358,33.0434,29.9423,11.3018
66,14388,0.78,"[0.5,0.7)",544,0.574174,1.0,0.00597957,0.00597957,224.7379,32.8053,18.3402,10.4797
66,14388,0.78,"[0.7,1.0)",51,0.743671,1.0,0.00497875,0.00497875,299.8136,33.2005,18.343,13.6839
66,14388,0.78,boundary(r=t),6949,0.0,1.0,0.00908318,0.00908318,134.2448,0.0,0.0,0.0
67,14606,0.776667,"[0.0,0.1)",1818,0.04941,1.0,0.00914108,0.00914108,140.323,33.1613,32.3824,1.5665
67,14606,0.776667,"[0.1,0.3)",2944,0.192113,1.0,0.00688466,0.00688466,207.3608,33.229,32.1047,6.2773
67,14606,0.776667,"[0.3,0.5)",1611,0.38505,1.0,0.00529606,0.00529606,331.7065,33.1506,29.4804,11.1117
67,14606,0.776667,"[0.5,0.7)",526,0.574288,1.0,0.00610726,0.00610726,232.849,32.9979,18.321,10.4579
67,14606,0.776667,"[0.7,1.0)",51,0.74814,1.0,0.00559292,0.00559292,235.7305,33.2038,15.6747,11.7038
67,14606,0.776667,boundary(r=t),6949,0.0,1.0,0.00913605,0.00913605,133.7042,0.0,0.0,0.0
68,14824,0.773333,"[0.0,0.1)",1830,0.050928,1.0,0.00897141,0.00897141,143.8573,33.0766,32.8339,1.6179
68,14824,0.773333,"[0.1,0.3)",2981,0.191716,1.0,0.00694173,0.00694173,200.0055,33.2808,31.7475,6.1292
68,14824,0.773333,"[0.3,0.5)",1588,0.384583,1.0,0.00530714,0.00530714,330.1048,33.1001,29.7145,11.2794
68,14824,0.773333,"[0.5,0.7)",506,0.57701,1.0,0.0059156,0.0059156,244.5904,33.1644,19.3058,11.0602
68,14824,0.773333,"[0.7,1.0)",45,0.745973,1.0,0.00481008,0.00481008,320.6589,32.934,18.8545,14.0811
68,14824,0.773333,boundary(r=t),6949,0.0,1.0,0.00911465,0.00911465,133.7747,0.0,0.0,0.0
69,15042,0.77,"[0.0,0.1)",1758,0.048742,1.0,0.00902411,0.00902411,142.4366,33.0209,32.8481,1.5572
69,15042,0.77,"[0.1,0.3)",2969,0.19417,1.0,0.00684243,0.00684243,214.1093,33.2447,33.2919,6.5558
69,15042,0.77,"[0.3,0.5)",1617,0.385969,1.0,0.00516663,0.00516663,335.334,33.1262,30.0944,11.3973
69,15042,0.77,"[0.5,0.7)",548,0.577328,1.0,0.00593769,0.00593769,247.6179,32.9051,19.0066,10.9325
69,15042,0.77,"[0.7,1.0)",58,0.756769,1.0,0.0047831,0.0047831,377.6613,33.343,20.3685,15.4428
69,15042,0.77,boundary(r=t),6949,0.0,1.0,0.00915346,0.00915346,133.3266,0.0,0.0,0.0
70,15260,0.766667,"[0.0,0.1)",1929,0.051049,1.0,0.00918989,0.00918989,140.5853,33.1658,32.5344,1.6257
70,15260,0.766667,"[0.1,0.3)",2848,0.19214,1.0,0.00675213,0.00675213,208.8365,33.2294,33.3743,6.4554
70,15260,0.766667,"[0.3,0.5)",1565,0.386174,1.0,0.00519795,0.00519795,332.4514,33.1813,29.8783,11.3363
70,15260,0.766667,"[0.5,0.7)",560,0.574366,1.0,0.00591966,0.00591966,235.7298,33.1327,18.6734,10.6643
70,15260,0.766667,"[0.7,1.0)",48,0.75157,1.0,0.00544996,0.00544996,344.4065,32.0707,17.7392,13.5195
70,15260,0.766667,boundary(r=t),6949,0.0,1.0,0.00916401,0.00916401,133.3912,0.0,0.0,0.0
71,15478,0.763333,"[0.0,0.1)",1823,0.049551,1.0,0.00928246,0.00928246,139.4155,33.0988,32.4833,1.569
71,15478,0.763333,"[0.1,0.3)",2981,0.1908,1.0,0.00691496,0.00691496,208.8234,33.3067,32.9409,6.3783
71,15478,0.763333,"[0.3,0.5)",1549,0.385773,1.0,0.00530971,0.00530971,333.5776,33.1291,29.5597,11.203
71,15478,0.763333,"[0.5,0.7)",534,0.574246,1.0,0.00619501,0.00619501,252.2531,32.89,18.8297,10.667
71,15478,0.763333,"[0.7,1.0)",63,0.757357,1.0,0.00572102,0.00572102,234.5648,32.8407,15.645,11.8437
71,15478,0.763333,boundary(r=t),6949,0.0,1.0,0.00917795,0.00917795,132.9939,0.0,0.0,0.0
72,15696,0.76,"[0.0,0.1)",1955,0.048825,1.0,0.00935005,0.00935005,137.7265,33.1932,32.9291,1.5754
72,15696,0.76,"[0.1,0.3)",2871,0.192536,1.0,0.00704425,0.00704425,211.4305,33.3146,32.9975,6.476
72,15696,0.76,"[0.3,0.5)",1536,0.387461,1.0,0.00514307,0.00514307,356.7281,33.1236,31.0045,11.7266
72,15696,0.76,"[0.5,0.7)",534,0.576132,1.0,0.00618995,0.00618995,232.3708,33.0225,18.4276,10.529
72,15696,0.76,"[0.7,1.0)",54,0.744395,1.0,0.00663566,0.00663566,243.1682,33.1606,16.7644,12.4996
72,15696,0.76,boundary(r=t),6949,0.0,1.0,0.00921997,0.00921997,132.7355,0.0,0.0,0.0
73,15914,0.756667,"[0.0,0.1)",1841,0.048784,1.0,0.00934389,0.00934389,141.6278,33.121,32.7644,1.5621
73,15914,0.756667,"[0.1,0.3)",2960,0.191819,1.0,0.00704628,0.00704628,207.9187,33.3896,32.478,6.3158
73,15914,0.756667,"[0.3,0.5)",1561,0.383458,1.0,0.00536314,0.00536314,339.8142,33.1096,30.3297,11.4292
73,15914,0.756667,"[0.5,0.7)",532,0.574806,1.0,0.0056803,0.0056803,255.2465,33.0276,19.5839,11.1866
73,15914,0.756667,"[0.7,1.0)",56,0.747539,1.0,0.00576726,0.00576726,388.096,32.1931,19.8194,14.9076
73,15914,0.756667,boundary(r=t),6949,0.0,1.0,0.00919348,0.00919348,133.1515,0.0,0.0,0.0
74,16132,0.753333,"[0.0,0.1)",1831,0.049337,1.0,0.00911836,0.00911836,140.0275,33.2165,32.9912,1.5851
74,16132,0.753333,"[0.1,0.3)",3008,0.191751,1.0,0.00713772,0.00713772,205.104,33.347,32.5982,6.3323
74,16132,0.753333,"[0.3,0.5)",1585,0.385436,1.0,0.00523982,0.00523982,358.7301,33.1083,30.9115,11.7116
74,16132,0.753333,"[0.5,0.7)",486,0.578568,1.0,0.00568786,0.00568786,255.9621,33.1444,19.3817,11.1751
74,16132,0.753333,"[0.7,1.0)",40,0.750673,1.0,0.00636192,0.00636192,204.1771,32.9452,15.6168,11.8032
74,16132,0.753333,boundary(r=t),6949,0.0,1.0,0.00927787,0.00927787,131.4784,0.0,0.0,0.0
75,16350,0.75,"[0.0,0.1)",1813,0.050476,1.0,0.00932353,0.00932353,139.3473,33.1696,33.2178,1.6203
75,16350,0.75,"[0.1,0.3)",2926,0.192547,1.0,0.0070572,0.0070572,209.878,33.2979,32.1836,6.3219
75,16350,0.75,"[0.3,0.5)",1632,0.387925,1.0,0.00522856,0.00522856,330.3564,33.166,29.7776,11.3516
75,16350,0.75,"[0.5,0.7)",514,0.573307,1.0,0.00593185,0.00593185,245.6019,32.8985,19.0499,10.8456
75,16350,0.75,"[0.7,1.0)",65,0.749435,1.0,0.0058221,0.0058221,299.2825,32.6556,17.7252,13.192
75,16350,0.75,boundary(r=t),6949,0.0,1.0,0.00934298,0.00934298,131.2546,0.0,0.0,0.0
76,16568,0.746667,"[0.0,0.1)",1830,0.047561,1.0,0.00915055,0.00915055,141.3858,33.0424,33.4733,1.5471
76,16568,0.746667,"[0.1,0.3)",2914,0.192334,1.0,0.00696404,0.00696404,204.1889,33.3478,32.6938,6.3781
76,16568,0.746667,"[0.3,0.5)",1634,0.384907,1.0,0.00525708,0.00525708,352.9149,33.3738,30.8292,11.6421
76,16568,0.746667,"[0.5,0.7)",513,0.573738,1.0,0.00615034,0.00615034,222.7701,32.8405,18.1131,10.328
76,16568,0.746667,"[0.7,1.0)",59,0.74775,1.0,0.00524756,0.00524756,276.598,33.2649,17.888,13.4284
76,16568,0.746667,boundary(r=t),6949,0.0,1.0,0.00931303,0.00931303,131.2413,0.0,0.0,0.0
77,16786,0.743333,"[0.0,0.1)",1790,0.049392,1.0,0.00922159,0.00922159,138.3538,33.2015,33.5992,1.6039
77,16786,0.743333,"[0.1,0.3)",2940,0.194692,1.0,0.00683079,0.00683079,214.4344,33.2858,33.4219,6.6063
77,16786,0.743333,"[0.3,0.5)",1638,0.383742,1.0,0.00512551,0.00512551,342.5063,33.2519,31.0005,11.6772
77,16786,0.743333,"[0.5,0.7)",532,0.574032,1.0,0.00589844,0.00589844,241.6306,32.8113,18.5132,10.5465
77,16786,0.743333,"[0.7,1.0)",50,0.740828,1.0,0.00452373,0.00452373,326.7794,32.9036,19.272,14.2471
77,16786,0.743333,boundary(r=t),6949,0.0,1.0,0.00924723,0.00924723,132.157,0.0,0.0,0.0
78,17004,0.74,"[0.0,0.1)",1873,0.048501,1.0,0.00944351,0.00944351,139.6406,33.0849,33.1304,1.5577
78,17004,0.74,"[0.1,0.3)",2914,0.190656,1.0,0.00709252,0.00709252,198.7993,33.3622,32.1274,6.1944
78,17004,0.74,"[0.3,0.5)",1577,0.38717,1.0,0.0051645,0.0051645,367.2686,33.2083,31.5809,12.0178
78,17004,0.74,"[0.5,0.7)",537,0.57219,1.0,0.00552987,0.00552987,264.6175,33.0039,20.195,11.4688
78,17004,0.74,"[0.7,1.0)",49,0.740684,1.0,0.00547352,0.00547352,342.98,32.5787,17.8431,13.2855
78,17004,0.74,boundary(r=t),6949,0.0,1.0,0.00935551,0.00935551,130.7435,0.0,0.0,0.0
79,17222,0.736667,"[0.0,0.1)",1845,0.050444,1.0,0.00905086,0.00905086,142.1237,33.1429,34.3961,1.7022
79,17222,0.736667,"[0.1,0.3)",2908,0.192751,1.0,0.00695189,0.00695189,205.8233,33.2648,32.5677,6.3588
79,17222,0.736667,"[0.3,0.5)",1615,0.386398,1.0,0.0053002,0.0053002,353.6756,33.1944,30.4797,11.5643
79,17222,0.736667,"[0.5,0.7)",530,0.576095,1.0,0.00609562,0.00609562,230.3841,32.8273,18.3899,10.5288
79,17222,0.736667,"[0.7,1.0)",52,0.749807,1.0,0.00584577,0.00584577,297.2464,32.938,17.861,13.3865
79,17222,0.736667,boundary(r=t),6949,0.0,1.0,0.0093413,0.0093413,132.4895,0.0,0.0,0.0
80,17440,0.733333,"[0.0,0.1)",1832,0.049728,1.0,0.00928076,0.00928076,136.8387,33.2065,33.1562,1.6057
80,17440,0.733333,"[0.1,0.3)",2893,0.192906,1.0,0.00711032,0.00711032,207.6688,33.3085,32.6244,6.3977
80,17440,0.733333,"[0.3,0.5)",1637,0.388247,1.0,0.00526071,0.00526071,338.3981,33.1549,30.2457,11.5417
80,17440,0.733333,"[0.5,0.7)",543,0.571847,1.0,0.0059438,0.0059438,254.3967,32.8842,19.3549,10.9939
80,17440,0.733333,"[0.7,1.0)",45,0.749596,1.0,0.00544784,0.00544784,269.5371,33.2669,17.1835,12.9441
80,17440,0.733333,boundary(r=t),6949,0.0,1.0,0.00934549,0.00934549,131.776,0.0,0.0,0.0
81,17658,0.73,"[0.0,0.1)",1814,0.049248,1.0,0.00940917,0.00940917,137.4306,33.3289,33.5556,1.6029
81,17658,0.73,"[0.1,0.3)",2982,0.191837,1.0,0.00702188,0.00702188,203.6661,33.3414,32.1119,6.2454
81,17658,0.73,"[0.3,0.5)",1566,0.386281,1.0,0.00520596,0.00520596,342.6661,33.1602,30.6387,11.6246
81,17658,0.73,"[0.5,0.7)",522,0.575557,1.0,0.00580678,0.00580678,239.8796,33.0124,18.9015,10.8125
81,17658,0.73,"[0.7,1.0)",66,0.749084,1.0,0.00579952,0.00579952,296.7431,32.8683,17.1255,12.9096
81,17658,0.73,boundary(r=t),6949,0.0,1.0,0.00942609,0.00942609,130.3262,0.0,0.0,0.0
82,17876,0.726667,"[0.0,0.1)",1886,0.049596,1.0,0.00939665,0.00939665,139.7913,33.1618,33.1251,1.6048
82,17876,0.726667,"[0.1,0.3)",2921,0.190886,1.0,0.00702884,0.00702884,203.2863,33.3302,32.4722,6.2409
82,17876,0.726667,"[0.3,0.5)",1564,0.387143,1.0,0.00522917,0.00522917,372.4693,33.1688,31.4865,11.9616
82,17876,0.726667,"[0.5,0.7)",517,0.573088,1.0,0.00585184,0.00585184,246.9909,32.9184,18.7184,10.6819
82,17876,0.726667,"[0.7,1.0)",62,0.744124,1.0,0.00590069,0.00590069,279.5401,32.7467,16.6978,12.36
82,17876,0.726667,boundary(r=t),6949,0.0,1.0,0.00941225,0.00941225,130.5832,0.0,0.0,0.0
83,18094,0.723333,"[0.0,0.1)",1834,0.049503,1.0,0.00945268,0.00945268,137.2948,33.2203,32.9734,1.597
83,18094,0.723333,"[0.1,0.3)",2953,0.192736,1.0,0.00706528,0.00706528,206.189,33.3146,32.7561,6.4111
83,18094,0.723333,"[0.3,0.5)",1580,0.386451,1.0,0.00510024,0.00510024,356.6048,33.1322,31.6887,12.0087
83,18094,0.723333,"[0.5,0.7)",544,0.578059,1.0,0.00572473,0.00572473,252.8243,33.1183,19.5987,11.2391
83,18094,0.723333,"[0.7,1.0)",39,0.746499,1.0,0.00618764,0.00618764,246.1277,33.3302,17.3673,12.9246
83,18094,0.723333,boundary(r=t),6949,0.0,1.0,0.00936336,0.00936336,131.6623,0.0,0.0,0.0
84,18312,0.72,"[0.0,0.1)",1795,0.048937,1.0,0.00947039,0.00947039,138.9418,33.1191,32.9668,1.5578
84,18312,0.72,"[0.1,0.3)",2938,0.190862,1.0,0.00698901,0.00698901,206.8257,33.2865,32.5062,6.2983
84,18312,0.72,"[0.3,0.5)",1601,0.385826,1.0,0.00514671,0.00514671,344.6589,33.2828,30.8905,11.7304
84,18312,0.72,"[0.5,0.7)",563,0.573308,1.0,0.00565857,0.00565857,250.3436,33.0263,19.4782,11.054
84,18312,0.72,"[0.7,1.0)",53,0.742426,1.0,0.0058197,0.0058197,278.312,33.144,17.1091,12.6681
84,18312,0.72,boundary(r=t),6949,0.0,1.0,0.00932772,0.00932772,131.1133,0.0,0.0,0.0
85,18530,0.716667,"[0.0,0.1)",1827,0.049348,1.0,0.0094681,0.0094681,138.7802,33.1958,33.0584,1.6012
85,18530,0.716667,"[0.1,0.3)",2906,0.193145,1.0,0.00698545,0.00698545,213.9111,33.3433,33.3347,6.5432
85,18530,0.716667,"[0.3,0.5)",1643,0.385052,1.0,0.00528844,0.00528844,344.7294,33.3782,30.4927,11.5683
85,18530,0.716667,"[0.5,0.7)",511,0.574257,1.0,0.00582419,0.00582419,242.1025,32.869,18.8116,10.7135
85,18530,0.716667,"[0.7,1.0)",63,0.7519,1.0,0.00573521,0.00573521,302.2925,32.3766,17.0812,12.9387
85,18530,0.716667,boundary(r=t),6949,0.0,1.0,0.00934821,0.00934821,131.3961,0.0,0.0,0.0
86,18748,0.713333,"[0.0,0.1)",1773,0.04949,1.0,0.00950737,0.00950737,136.005,33.2526,32.9702,1.61
86,18748,0.713333,"[0.1,0.3)",2978,0.193528,1.0,0.00693417,0.00693417,212.0203,33.3623,33.2615,6.5415
86,18748,0.713333,"[0.3,0.5)",1613,0.385081,1.0,0.00521019,0.00521019,347.4576,33.2378,30.7263,11.6561
86,18748,0.713333,"[0.5,0.7)",524,0.577487,1.0,0.00566934,0.00566934,274.7742,33.0729,20.0998,11.4781
86,18748,0.713333,"[0.7,1.0)",62,0.74936,1.0,0.00629699,0.00629699,281.8201,32.5863,16.7657,12.5466
86,18748,0.713333,boundary(r=t),6949,0.0,1.0,0.00942275,0.00942275,130.4241,0.0,0.0,0.0
87,18966,0.71,"[0.0,0.1)",1780,0.049664,1.0,0.00933827,0.00933827,140.2603,33.14,33.0551,1.6187
87,18966,0.71,"[0.1,0.3)",2986,0.190245,1.0,0.00696259,0.00696259,209.8182,33.275,33.2143,6.4167
87,18966,0.71,"[0.3,0.5)",1595,0.385892,1.0,0.00504344,0.00504344,371.9678,33.3087,32.4571,12.3441
87,18966,0.71,"[0.5,0.7)",537,0.576326,1.0,0.00585369,0.00585369,252.8382,33.0784,19.594,11.1901
87,18966,0.71,"[0.7,1.0)",52,0.761859,1.0,0.00576245,0.00576245,351.5099,32.4179,17.9688,13.7744
87,18966,0.71,boundary(r=t),6949,0.0,1.0,0.00938,0.00938,131.1785,0.0,0.0,0.0
88,19184,0.706667,"[0.0,0.1)",1844,0.050097,1.0,0.00954159,0.00954159,136.4177,33.1805,33.7496,1.6398
88,19184,0.706667,"[0.1,0.3)",2956,0.192177,1.0,0.00700743,0.00700743,208.6454,33.3367,32.3868,6.3385
88,19184,0.706667,"[0.3,0.5)",1546,0.388828,1.0,0.0050648,0.0050648,340.3107,33.2865,30.666,11.7361
88,19184,0.706667,"[0.5,0.7)",537,0.574504,1.0,0.00587711,0.00587711,254.8705,33.0026,19.7813,11.2518
88,19184,0.706667,"[0.7,1.0)",67,0.740963,1.0,0.00609244,0.00609244,220.6738,32.5864,16.0013,11.8764
88,19184,0.706667,boundary(r=t),6949,0.0,1.0,0.00948615,0.00948615,129.6601,0.0,0.0,0.0
89,19402,0.703333,"[0.0,0.1)",1835,0.048894,1.0,0.00956754,0.00956754,138.4419,33.1954,33.1681,1.59
89,19402,0.703333,"[0.1,0.3)",2981,0.193721,1.0,0.00703094,0.00703094,208.118,33.3809,32.9687,6.4508
89,19402,0.703333,"[0.3,0.5)",1563,0.388321,1.0,0.00515929,0.00515929,346.4874,33.1607,30.9965,11.8348
89,19402,0.703333,"[0.5,0.7)",519,0.574119,1.0,0.00568873,0.00568873,265.9324,32.7861,19.8379,11.2748
89,19402,0.703333,"[0.7,1.0)",52,0.751765,1.0,0.00566779,0.00566779,274.7181,33.4557,17.7386,13.287
89,19402,0.703333,boundary(r=t),6949,0.0,1.0,0.00939118,0.00939118,130.7198,0.0,0.0,0.0
90,19620,0.7,"[0.0,0.1)",1799,0.049764,1.0,0.00940576,0.00940576,138.8606,33.3209,33.5552,1.624
90,19620,0.7,"[0.1,0.3)",2891,0.19356,1.0,0.00697796,0.00697796,212.1906,33.3603,33.3728,6.546
90,19620,0.7,"[0.3,0.5)",1601,0.384908,1.0,0.00512998,0.00512998,369.8601,33.2232,31.761,12.0212
90,19620,0.7,"[0.5,0.7)",587,0.5743,1.0,0.00592406,0.00592406,238.9304,32.9999,18.9204,10.8168
90,19620,0.7,"[0.7,1.0)",72,0.747545,1.0,0.00527587,0.00527587,285.9896,33.0201,17.578,13.1092
90,19620,0.7,boundary(r=t),6949,0.0,1.0,0.00947028,0.00947028,130.3476,0.0,0.0,0.0
91,19838,0.696667,"[0.0,0.1)",1885,0.04937,1.0,0.00972451,0.00972451,135.9942,33.2562,32.3091,1.557
91,19838,0.696667,"[0.1,0.3)",2933,0.191532,1.0,0.00709293,0.00709293,207.2769,33.3557,32.9186,6.3818
91,19838,0.696667,"[0.3,0.5)",1529,0.386433,1.0,0.00509636,0.00509636,368.2547,33.1133,32.2875,12.2543
91,19838,0.696667,"[0.5,0.7)",551,0.582438,1.0,0.00577426,0.00577426,250.7116,33.1176,19.3686,11.2199
91,19838,0.696667,"[0.7,1.0)",52,0.748591,1.0,0.00574494,0.00574494,289.5219,32.468,17.2273,12.8642
91,19838,0.696667,boundary(r=t),6949,0.0,1.0,0.00948788,0.00948788,129.5786,0.0,0.0,0.0
92,20056,0.693333,"[0.0,0.1)",1774,0.049272,1.0,0.00949671,0.00949671,137.699,33.2451,33.277,1.6276
92,20056,0.693333,"[0.1,0.3)",2948,0.193602,1.0,0.00705214,0.00705214,212.2563,33.4088,33.6786,6.6135
92,20056,0.693333,"[0.3,0.5)",1634,0.387825,1.0,0.00511727,0.00511727,374.1573,33.1208,32.594,12.4806
92,20056,0.693333,"[0.5,0.7)",531,0.575619,1.0,0.00553172,0.00553172,282.238,32.9815,20.7267,11.8076
92,20056,0.693333,"[0.7,1.0)",63,0.745277,1.0,0.00505488,0.00505488,423.3233,32.5739,20.448,15.3598
92,20056,0.693333,boundary(r=t),6949,0.0,1.0,0.00943546,0.00943546,130.4781,0.0,0.0,0.0
93,20274,0.69,"[0.0,0.1)",1835,0.04818,1.0,0.00960611,0.00960611,137.5611,33.1285,32.9812,1.5576
93,20274,0.69,"[0.1,0.3)",2916,0.192378,1.0,0.00725314,0.00725314,204.0137,33.3424,32.2403,6.2821
93,20274,0.69,"[0.3,0.5)",1608,0.383537,1.0,0.00506432,0.00506432,380.9289,33.1454,32.229,12.1303
93,20274,0.69,"[0.5,0.7)",540,0.576141,1.0,0.00582547,0.00582547,247.0829,33.0188,19.466,11.1291
93,20274,0.69,"[0.7,1.0)",51,0.754807,1.0,0.00585522,0.00585522,267.0888,33.2599,17.1512,12.9066
93,20274,0.69,boundary(r=t),6949,0.0,1.0,0.0094821,0.0094821,129.9166,0.0,0.0,0.0
94,20492,0.686667,"[0.0,0.1)",1829,0.049587,1.0,0.00946981,0.00946981,137.1545,33.215,33.0124,1.6065
94,20492,0.686667,"[0.1,0.3)",2985,0.193045,1.0,0.00704266,0.00704266,214.4344,33.362,33.2894,6.5363
94,20492,0.686667,"[0.3,0.5)",1540,0.387094,1.0,0.00519455,0.00519455,358.7965,33.2457,31.3212,11.8735
94,20492,0.686667,"[0.5,0.7)",529,0.573266,1.0,0.00582545,0.00582545,244.0119,33.0695,19.3471,11.0285
94,20492,0.686667,"[0.7,1.0)",67,0.741177,1.0,0.00545947,0.00545947,341.1015,32.8617,19.3091,14.3708
94,20492,0.686667,boundary(r=t),6949,0.0,1.0,0.00957336,0.00957336,129.4931,0.0,0.0,0.0
95,20710,0.683333,"[0.0,0.1)",1853,0.05055,1.0,0.00972634,0.00972634,132.7795,33.2864,33.2846,1.6555
95,20710,0.683333,"[0.1,0.3)",2878,0.193671,1.0,0.00695499,0.00695499,213.9471,33.3114,33.5966,6.6429
95,20710,0.683333,"[0.3,0.5)",1617,0.386296,1.0,0.00515316,0.00515316,365.2254,33.2105,31.6499,12.0328
95,20710,0.683333,"[0.5,0.7)",526,0.575242,1.0,0.00568907,0.00568907,268.9896,33.0175,20.0271,11.4325
95,20710,0.683333,"[0.7,1.0)",76,0.745207,1.0,0.00522438,0.00522438,413.9807,32.7489,19.5863,14.7773
95,20710,0.683333,boundary(r=t),6949,0.0,1.0,0.00947032,0.00947032,130.4816,0.0,0.0,0.0
96,20928,0.68,"[0.0,0.1)",1871,0.050185,1.0,0.00959821,0.00959821,136.9934,33.2001,32.4477,1.6154
96,20928,0.68,"[0.1,0.3)",2887,0.193046,1.0,0.00713581,0.00713581,203.6201,33.3406,32.3936,6.3294
96,20928,0.68,"[0.3,0.5)",1582,0.385005,1.0,0.00522875,0.00522875,341.1871,33.1683,30.2443,11.4905
96,20928,0.68,"[0.5,0.7)",545,0.57705,1.0,0.00585117,0.00585117,255.3507,32.8226,19.3736,11.0881
96,20928,0.68,"[0.7,1.0)",65,0.756029,1.0,0.00508641,0.00508641,350.2828,32.6859,19.8012,14.9171
96,20928,0.68,boundary(r=t),6949,0.0,1.0,0.00960406,0.00960406,128.6599,0.0,0.0,0.0
97,21146,0.676667,"[0.0,0.1)",1774,0.050747,1.0,0.00987712,0.00987712,132.3983,33.3114,33.5367,1.661
97,21146,0.676667,"[0.1,0.3)",2974,0.191567,1.0,0.0071062,0.0071062,202.7873,33.3265,32.5432,6.2832
97,21146,0.676667,"[0.3,0.5)",1586,0.386473,1.0,0.00502397,0.00502397,403.0273,33.1915,33.4436,12.7315
97,21146,0.676667,"[0.5,0.7)",551,0.579001,1.0,0.00576701,0.00576701,260.2176,32.8855,19.4886,11.1986
97,21146,0.676667,"[0.7,1.0)",65,0.758336,1.0,0.00490285,0.00490285,378.8894,32.8452,19.026,14.4737
97,21146,0.676667,boundary(r=t),6949,0.0,1.0,0.00965716,0.00965716,128.7946,0.0,0.0,0.0
98,21364,0.673333,"[0.0,0.1)",1797,0.048938,1.0,0.00984865,0.00984865,134.1218,33.3897,31.9164,1.5333
98,21364,0.673333,"[0.1,0.3)",2947,0.192923,1.0,0.00698165,0.00698165,211.8971,33.3663,33.4274,6.5552
98,21364,0.673333,"[0.3,0.5)",1608,0.388831,1.0,0.00517449,0.00517449,356.371,33.1589,31.3956,11.9175
98,21364,0.673333,"[0.5,0.7)",541,0.579219,1.0,0.00592654,0.00592654,249.0368,32.9175,19.2042,11.0255
98,21364,0.673333,"[0.7,1.0)",57,0.750811,1.0,0.00546471,0.00546471,279.224,32.5376,17.2211,12.9218
98,21364,0.673333,boundary(r=t),6949,0.0,1.0,0.00962509,0.00962509,128.8912,0.0,0.0,0.0
99,21582,0.67,"[0.0,0.1)",1824,0.050364,1.0,0.00958273,0.00958273,137.0178,33.2328,32.7522,1.6201
99,21582,0.67,"[0.1,0.3)",2934,0.191851,1.0,0.00711328,0.00711328,206.4676,33.4391,32.8215,6.3784
99,21582,0.67,"[0.3,0.5)",1643,0.385248,1.0,0.00513384,0.00513384,350.622,33.268,31.2451,11.8327
99,21582,0.67,"[0.5,0.7)",485,0.571876,1.0,0.00583964,0.00583964,247.6152,32.7741,19.4381,11.017
99,21582,0.67,"[0.7,1.0)",64,0.742211,1.0,0.00512634,0.00512634,396.8474,33.2782,19.9193,14.8931
99,21582,0.67,boundary(r=t),6949,0.0,1.0,0.00957592,0.00957592,129.6878,0.0,0.0,0.0
100,21800,0.666667,"[0.0,0.1)",1879,0.04837,1.0,0.00974419,0.00974419,133.918,33.2376,32.7393,1.5386
100,21800,0.666667,"[0.1,0.3)",2900,0.192367,1.0,0.00708923,0.00708923,206.5956,33.3042,32.8944,6.4527
100,21800,0.666667,"[0.3,0.5)",1537,0.388183,1.0,0.00496237,0.00496237,350.9467,33.2275,31.4656,12.0316
100,21800,0.666667,"[0.5,0.7)",569,0.575225,1.0,0.00559964,0.00559964,272.0207,33.0957,20.5267,11.7126
100,21800,0.666667,"[0.7,1.0)",65,0.740602,1.0,0.00556556,0.00556556,305.5085,32.7857,18.6992,13.8594
100,21800,0.666667,boundary(r=t),6949,0.0,1.0,0.00966853,0.00966853,128.029,0.0,0.0,0.0
101,22018,0.663333,"[0.0,0.1)",1785,0.049692,1.0,0.00949025,0.00949025,136.2187,33.2606,32.6842,1.6087
101,22018,0.663333,"[0.1,0.3)",2961,0.194632,1.0,0.0070494,0.0070494,209.8252,33.3741,32.9629,6.4774
101,22018,0.663333,"[0.3,0.5)",1610,0.387581,1.0,0.00512228,0.00512228,376.8991,33.1839,32.3579,12.371
101,22018,0.663333,"[0.5,0.7)",545,0.576043,1.0,0.00579858,0.00579858,282.0158,32.9381,19.9991,11.396
101,22018,0.663333,"[0.7,1.0)",49,0.750068,1.0,0.00464284,0.00464284,336.8905,33.225,20.5703,15.426
101,22018,0.663333,boundary(r=t),6949,0.0,1.0,0.00951121,0.00951121,130.4045,0.0,0.0,0.0
102,22236,0.66,"[0.0,0.1)",1897,0.049958,1.0,0.00999619,0.00999619,133.3282,33.2893,31.9896,1.5589
102,22236,0.66,"[0.1,0.3)",2858,0.194544,1.0,0.00699549,0.00699549,212.3394,33.3917,33.6823,6.6312
102,22236,0.66,"[0.3,0.5)",1622,0.384915,1.0,0.00509506,0.00509506,379.7449,33.2952,32.9841,12.4221
102,22236,0.66,"[0.5,0.7)",514,0.580696,1.0,0.00535309,0.00535309,289.888,33.1559,21.2291,12.1883
102,22236,0.66,"[0.7,1.0)",59,0.743508,1.0,0.00534326,0.00534326,283.4748,32.7416,17.5237,13.0623
102,22236,0.66,boundary(r=t),6949,0.0,1.0,0.00966351,0.00966351,128.4731,0.0,0.0,0.0
103,22454,0.656667,"[0.0,0.1)",1858,0.050009,1.0,0.00970319,0.00970319,135.7973,33.2381,33.3396,1.6231
103,22454,0.656667,"[0.1,0.3)",2865,0.195043,1.0,0.00723839,0.00723839,210.5087,33.3657,33.0984,6.5778
103,22454,0.656667,"[0.3,0.5)",1573,0.384528,1.0,0.0051617,0.0051617,385.011,33.2959,32.5372,12.3058
103,22454,0.656667,"[0.5,0.7)",580,0.573666,1.0,0.00559549,0.00559549,283.5546,33.072,20.4913,11.6351
103,22454,0.656667,"[0.7,1.0)",74,0.755106,1.0,0.00506978,0.00506978,348.2928,32.7095,18.1686,13.8072
103,22454,0.656667,boundary(r=t),6949,0.0,1.0,0.00964848,0.00964848,128.9187,0.0,0.0,0.0
104,22672,0.653333,"[0.0,0.1)",1805,0.049237,1.0,0.01001494,0.01001494,132.411,33.3457,31.7563,1.5411
104,22672,0.653333,"[0.1,0.3)",2929,0.19165,1.0,0.00712651,0.00712651,205.7173,33.3328,32.6355,6.3489
104,22672,0.653333,"[0.3,0.5)",1637,0.387115,1.0,0.00503474,0.00503474,363.5303,33.2045,31.7498,12.1201
104,22672,0.653333,"[0.5,0.7)",525,0.575842,1.0,0.0056945,0.0056945,265.5322,33.0002,20.2065,11.5412
104,22672,0.653333,"[0.7,1.0)",54,0.751872,1.0,0.0053288,0.0053288,658.3939,33.2695,22.4883,17.1561
104,22672,0.653333,boundary(r=t),6949,0.0,1.0,0.00961492,0.00961492,129.3867,0.0,0.0,0.0
105,22890,0.65,"[0.0,0.1)",1752,0.04793,1.0,0.00970957,0.00970957,135.7225,33.3243,33.3278,1.5533
105,22890,0.65,"[0.1,0.3)",2942,0.19168,1.0,0.00729856,0.00729856,201.4371,33.4254,32.2781,6.272
105,22890,0.65,"[0.3,0.5)",1617,0.38626,1.0,0.00528516,0.00528516,361.061,33.2499,31.2433,11.8769
105,22890,0.65,"[0.5,0.7)",570,0.573071,1.0,0.0056722,0.0056722,251.9782,33.0745,19.9995,11.3821
105,22890,0.65,"[0.7,1.0)",69,0.752211,1.0,0.00527838,0.00527838,289.5939,32.7564,17.653,13.3223
105,22890,0.65,boundary(r=t),6949,0.0,1.0,0.00958056,0.00958056,128.8167,0.0,0.0,0.0
106,23108,0.646667,"[0.0,0.1)",1832,0.049592,1.0,0.00984165,0.00984165,134.956,33.3808,32.0828,1.568
106,23108,0.646667,"[0.1,0.3)",2903,0.193965,1.0,0.00707929,0.00707929,205.1725,33.3586,32.9837,6.4775
106,23108,0.646667,"[0.3,0.5)",1637,0.38619,1.0,0.00518181,0.00518181,371.8218,33.272,31.7123,12.0707
106,23108,0.646667,"[0.5,0.7)",518,0.576797,1.0,0.00584887,0.00584887,281.9296,32.911,20.1151,11.4925
106,23108,0.646667,"[0.7,1.0)",60,0.749943,1.0,0.00548412,0.00548412,434.8233,32.7454,18.8292,14.2339
106,23108,0.646667,boundary(r=t),6949,0.0,1.0,0.00968157,0.00968157,127.7909,0.0,0.0,0.0
107,23326,0.643333,"[0.0,0.1)",1790,0.050192,1.0,0.00967428,0.00967428,136.312,33.2049,32.4609,1.5858
107,23326,0.643333,"[0.1,0.3)",2968,0.192049,1.0,0.00712323,0.00712323,205.4627,33.4112,32.8427,6.366
107,23326,0.643333,"[0.3,0.5)",1575,0.384388,1.0,0.00501601,0.00501601,365.3222,33.2371,32.1898,12.1318
107,23326,0.643333,"[0.5,0.7)",533,0.577958,1.0,0.00575012,0.00575012,261.9825,32.97,19.9662,11.5093
107,23326,0.643333,"[0.7,1.0)",84,0.74975,1.0,0.00510716,0.00510716,382.522,33.1311,19.7692,14.7887
107,23326,0.643333,boundary(r=t),6949,0.0,1.0,0.00960709,0.00960709,128.5535,0.0,0.0,0.0
108,23544,0.64,"[0.0,0.1)",1833,0.049096,1.0,0.01005119,0.01005119,132.968,33.2236,32.2839,1.5512
108,23544,0.64,"[0.1,0.3)",2928,0.192215,1.0,0.00706306,0.00706306,210.4078,33.3906,33.3145,6.4924
108,23544,0.64,"[0.3,0.5)",1565,0.383185,1.0,0.00511247,0.00511247,369.8169,33.263,32.4276,12.1809
108,23544,0.64,"[0.5,0.7)",567,0.572808,1.0,0.00590498,0.00590498,268.5357,33.0394,20.4252,11.5471
108,23544,0.64,"[0.7,1.0)",57,0.745088,1.0,0.00524245,0.00524245,246.8622,32.7745,17.3059,12.8673
108,23544,0.64,boundary(r=t),6949,0.0,1.0,0.00978315,0.00978315,127.7485,0.0,0.0,0.0
109,23762,0.636667,"[0.0,0.1)",1813,0.048694,1.0,0.00970554,0.00970554,135.4779,33.212,32.3285,1.5602
109,23762,0.636667,"[0.1,0.3)",2907,0.193074,1.0,0.00722268,0.00722268,205.7051,33.3536,32.1552,6.3229
109,23762,0.636667,"[0.3,0.5)",1612,0.389485,1.0,0.00511874,0.00511874,371.2846,33.2264,32.0817,12.3508
109,23762,0.636667,"[0.5,0.7)",568,0.571355,1.0,0.00582207,0.00582207,260.525,33.1341,20.1074,11.386
109,23762,0.636667,"[0.7,1.0)",50,0.745092,1.0,0.00572878,0.00572878,273.4057,32.4023,17.0727,12.7094
109,23762,0.636667,boundary(r=t),6949,0.0,1.0,0.00958714,0.00958714,128.8441,0.0,0.0,0.0
110,23980,0.633333,"[0.0,0.1)",1849,0.049454,1.0,0.01011752,0.01011752,129.5086,33.3531,33.1482,1.6268
110,23980,0.633333,"[0.1,0.3)",2904,0.19243,1.0,0.00717967,0.00717967,202.9607,33.3451,32.5783,6.3569
110,23980,0.633333,"[0.3,0.5)",1602,0.385635,1.0,0.00512901,0.00512901,362.201,33.1844,31.8916,12.0957
110,23980,0.633333,"[0.5,0.7)",535,0.576553,1.0,0.00556194,0.00556194,273.0069,32.9882,20.8321,11.9089
110,23980,0.633333,"[0.7,1.0)",60,0.746092,1.0,0.00503193,0.00503193,388.3675,33.0868,19.5243,14.5857
110,23980,0.633333,boundary(r=t),6949,0.0,1.0,0.00968444,0.00968444,129.3568,0.0,0.0,0.0
111,24198,0.63,"[0.0,0.1)",1806,0.049319,1.0,0.01012569,0.01012569,131.5342,33.4778,32.2652,1.552
111,24198,0.63,"[0.1,0.3)",2873,0.191117,1.0,0.00709145,0.00709145,209.582,33.2772,33.5975,6.5061
111,24198,0.63,"[0.3,0.5)",1678,0.385001,1.0,0.00529962,0.00529962,365.1593,33.2138,31.4061,11.9136
111,24198,0.63,"[0.5,0.7)",525,0.573834,1.0,0.0057631,0.0057631,269.5276,33.0091,20.3301,11.5598
111,24198,0.63,"[0.7,1.0)",68,0.74607,1.0,0.00584058,0.00584058,245.8519,32.854,16.3282,12.2083
111,24198,0.63,boundary(r=t),6949,0.0,1.0,0.00978396,0.00978396,128.4383,0.0,0.0,0.0
112,24416,0.626667,"[0.0,0.1)",1849,0.050082,1.0,0.01008859,0.01008859,133.1561,33.3035,32.4346,1.6036
112,24416,0.626667,"[0.1,0.3)",2904,0.193098,1.0,0.00726656,0.00726656,205.5996,33.3734,32.6605,6.4021
112,24416,0.626667,"[0.3,0.5)",1640,0.387657,1.0,0.00511956,0.00511956,369.9214,33.1873,31.9007,12.1947
112,24416,0.626667,"[0.5,0.7)",505,0.572578,1.0,0.00554991,0.00554991,313.6241,33.2181,21.6627,12.3135
112,24416,0.626667,"[0.7,1.0)",52,0.741901,1.0,0.00605353,0.00605353,271.1883,32.5081,17.3614,12.8612
112,24416,0.626667,boundary(r=t),6949,0.0,1.0,0.00976673,0.00976673,127.7714,0.0,0.0,0.0
113,24634,0.623333,"[0.0,0.1)",1823,0.050788,1.0,0.00976853,0.00976853,134.141,33.4172,32.4703,1.6332
113,24634,0.623333,"[0.1,0.3)",2945,0.191975,1.0,0.00728771,0.00728771,203.8747,33.3165,33.0951,6.3704
113,24634,0.623333,"[0.3,0.5)",1598,0.385874,1.0,0.0051758,0.0051758,357.5957,33.2426,31.4399,11.943
113,24634,0.623333,"[0.5,0.7)",532,0.573929,1.0,0.00535115,0.00535115,299.9731,32.9393,21.4732,12.2408
113,24634,0.623333,"[0.7,1.0)",52,0.752199,1.0,0.00439084,0.00439084,530.0989,32.663,21.7747,16.5188
113,24634,0.623333,boundary(r=t),6949,0.0,1.0,0.0098556,0.0098556,126.5527,0.0,0.0,0.0
114,24852,0.62,"[0.0,0.1)",1846,0.050055,1.0,0.01011006,0.01011006,133.8203,33.237,32.7466,1.5862
114,24852,0.62,"[0.1,0.3)",2949,0.193076,1.0,0.00728514,0.00728514,212.754,33.4531,33.8406,6.623
114,24852,0.62,"[0.3,0.5)",1575,0.387704,1.0,0.00504802,0.00504802,377.6575,33.3366,32.4149,12.3487
114,24852,0.62,"[0.5,0.7)",521,0.575736,1.0,0.005779,0.005779,255.8379,33.0504,19.77,11.3183
114,24852,0.62,"[0.7,1.0)",59,0.747722,1.0,0.00569921,0.00569921,329.2392,32.7567,18.0677,13.5564
114,24852,0.62,boundary(r=t),6949,0.0,1.0,0.00987426,0.00987426,126.4627,0.0,0.0,0.0
115,25070,0.616667,"[0.0,0.1)",1865,0.049357,1.0,0.00980256,0.00980256,132.6388,33.3856,32.7853,1.6002
115,25070,0.616667,"[0.1,0.3)",2838,0.192461,1.0,0.00705043,0.00705043,213.4906,33.4178,34.0218,6.6129
115,25070,0.616667,"[0.3,0.5)",1626,0.386619,1.0,0.00517759,0.00517759,411.3389,33.2941,33.7902,12.8473
115,25070,0.616667,"[0.5,0.7)",564,0.572168,1.0,0.00576711,0.00576711,257.2139,33.1928,20.0613,11.4018
115,25070,0.616667,"[0.7,1.0)",57,0.752142,1.0,0.00456909,0.00456909,588.2926,32.9419,22.5546,16.9821
115,25070,0.616667,boundary(r=t),6949,0.0,1.0,0.00978394,0.00978394,128.0929,0.0,0.0,0.0
116,25288,0.613333,"[0.0,0.1)",1827,0.048697,1.0,0.00999607,0.00999607,132.9886,33.2441,32.4537,1.5433
116,25288,0.613333,"[0.1,0.3)",2951,0.190846,1.0,0.00731172,0.00731172,202.6211,33.5106,32.4132,6.2887
116,25288,0.613333,"[0.3,0.5)",1593,0.38672,1.0,0.00514292,0.00514292,374.2661,33.224,31.7739,12.1257
116,25288,0.613333,"[0.5,0.7)",531,0.572574,1.0,0.00569124,0.00569124,296.4708,33.0829,21.2041,12.0391
116,25288,0.613333,"[0.7,1.0)",48,0.753616,1.0,0.005293,0.005293,556.4141,32.9635,20.8265,15.8756
116,25288,0.613333,boundary(r=t),6949,0.0,1.0,0.00984715,0.00984715,127.0407,0.0,0.0,0.0
117,25506,0.61,"[0.0,0.1)",1776,0.049213,1.0,0.00980986,0.00980986,135.6405,33.3011,32.998,1.5801
117,25506,0.61,"[0.1,0.3)",2984,0.192896,1.0,0.00722774,0.00722774,207.6069,33.3687,33.074,6.4749
117,25506,0.61,"[0.3,0.5)",1605,0.387931,1.0,0.00512083,0.00512083,363.604,33.131,31.8053,12.1382
117,25506,0.61,"[0.5,0.7)",526,0.576385,1.0,0.00581675,0.00581675,252.7193,32.977,20.0162,11.4926
117,25506,0.61,"[0.7,1.0)",59,0.745122,1.0,0.00548237,0.00548237,303.7474,32.6194,18.0446,13.4751
117,25506,0.61,boundary(r=t),6949,0.0,1.0,0.0099059,0.0099059,125.9469,0.0,0.0,0.0
118,25724,0.606667,"[0.0,0.1)",1796,0.050396,1.0,0.00977984,0.00977984,136.3727,33.2598,33.2131,1.6483
118,25724,0.606667,"[0.1,0.3)",3026,0.193089,1.0,0.0072395,0.0072395,202.2286,33.4053,32.9268,6.3971
118,25724,0.606667,"[0.3,0.5)",1561,0.388608,1.0,0.00511218,0.00511218,392.1211,33.2826,32.0327,12.2414
118,25724,0.606667,"[0.5,0.7)",518,0.575072,1.0,0.00584147,0.00584147,255.5881,32.9448,19.9696,11.3577
118,25724,0.606667,"[0.7,1.0)",49,0.749947,1.0,0.00504681,0.00504681,391.724,32.8499,20.4683,15.4525
118,25724,0.606667,boundary(r=t),6949,0.0,1.0,0.0099121,0.0099121,126.588,0.0,0.0,0.0
119,25942,0.603333,"[0.0,0.1)",1860,0.049042,1.0,0.00976204,0.00976204,133.5034,33.2787,32.5027,1.5826
119,25942,0.603333,"[0.1,0.3)",2887,0.190851,1.0,0.00732194,0.00732194,204.2598,33.3987,32.899,6.3463
119,25942,0.603333,"[0.3,0.5)",1610,0.386139,1.0,0.00522755,0.00522755,375.7064,33.236,31.8753,12.1762
119,25942,0.603333,"[0.5,0.7)",534,0.576931,1.0,0.00561144,0.00561144,270.9028,33.1406,20.6415,11.7878
119,25942,0.603333,"[0.7,1.0)",59,0.740939,1.0,0.00498346,0.00498346,344.7448,32.655,18.3509,13.7507
119,25942,0.603333,boundary(r=t),6949,0.0,1.0,0.00977425,0.00977425,127.2961,0.0,0.0,0.0
120,26160,0.6,"[0.0,0.1)",1782,0.049448,1.0,0.00998471,0.00998471,132.7077,33.099,32.6488,1.6066
120,26160,0.6,"[0.1,0.3)",2974,0.194291,1.0,0.00725644,0.00725644,205.2734,33.4659,32.7965,6.4329
120,26160,0.6,"[0.3,0.5)",1648,0.388142,1.0,0.00521838,0.00521838,364.7503,33.346,31.7556,12.0673
120,26160,0.6,"[0.5,0.7)",492,0.576994,1.0,0.00581181,0.00581181,265.6796,33.0203,20.5008,11.6569
120,26160,0.6,"[0.7,1.0)",54,0.747222,1.0,0.0046785,0.0046785,493.6358,33.3182,21.8204,16.2922
120,26160,0.6,boundary(r=t),6949,0.0,1.0,0.00996655,0.00996655,126.7681,0.0,0.0,0.0
121,26378,0.596667,"[0.0,0.1)",1749,0.04967,1.0,0.01000374,0.01000374,132.6737,33.2889,32.3491,1.5712
121,26378,0.596667,"[0.1,0.3)",2958,0.193052,1.0,0.0072011,0.0072011,207.1336,33.3989,32.7324,6.4298
121,26378,0.596667,"[0.3,0.5)",1642,0.388342,1.0,0.00517557,0.00517557,357.9255,33.3446,31.4759,12.0407
121,26378,0.596667,"[0.5,0.7)",551,0.581194,1.0,0.0059714,0.0059714,275.7453,33.0899,20.624,11.844
121,26378,0.596667,"[0.7,1.0)",50,0.746273,1.0,0.0049086,0.0049086,439.4209,33.0236,21.2024,15.7967
121,26378,0.596667,boundary(r=t),6949,0.0,1.0,0.00980704,0.00980704,127.2774,0.0,0.0,0.0
122,26596,0.593333,"[0.0,0.1)",1837,0.049024,1.0,0.00996592,0.00996592,135.1203,33.2462,31.9153,1.5535
122,26596,0.593333,"[0.1,0.3)",2935,0.192927,1.0,0.00725802,0.00725802,212.0256,33.4775,33.6266,6.6403
122,26596,0.593333,"[0.3,0.5)",1572,0.383671,1.0,0.00523646,0.00523646,367.9581,33.3051,32.3438,12.2367
122,26596,0.593333,"[0.5,0.7)",552,0.57612,1.0,0.00569645,0.00569645,282.3593,33.0215,20.7775,11.7983
122,26596,0.593333,"[0.7,1.0)",54,0.747153,1.0,0.00551145,0.00551145,338.8095,32.8791,19.1097,14.2704
122,26596,0.593333,boundary(r=t),6949,0.0,1.0,0.00991141,0.00991141,126.3954,0.0,0.0,0.0
123,26814,0.59,"[0.0,0.1)",1788,0.050092,1.0,0.00987872,0.00987872,135.1117,33.3875,32.6522,1.5992
123,26814,0.59,"[0.1,0.3)",2975,0.193702,1.0,0.00722956,0.00722956,205.2655,33.4575,32.9328,6.4417
123,26814,0.59,"[0.3,0.5)",1589,0.388117,1.0,0.00507995,0.00507995,387.6279,33.2023,32.6014,12.4619
123,26814,0.59,"[0.5,0.7)",537,0.57553,1.0,0.00584365,0.00584365,253.1201,33.1558,19.7067,11.2744
123,26814,0.59,"[0.7,1.0)",61,0.750778,1.0,0.00587513,0.00587513,362.6961,33.0866,18.3645,13.7858
123,26814,0.59,boundary(r=t),6949,0.0,1.0,0.01007995,0.01007995,125.5378,0.0,0.0,0.0
124,27032,0.586667,"[0.0,0.1)",1863,0.050162,1.0,0.01001539,0.01001539,135.6294,33.2702,32.9243,1.6272
124,27032,0.586667,"[0.1,0.3)",2977,0.193216,1.0,0.00739607,0.00739607,197.7794,33.3597,31.883,6.2207
124,27032,0.586667,"[0.3,0.5)",1544,0.387065,1.0,0.00513761,0.00513761,387.3773,33.2431,32.1436,12.3084
124,27032,0.586667,"[0.5,0.7)",511,0.572057,1.0,0.00575415,0.00575415,270.1334,32.9259,20.3783,11.5078
124,27032,0.586667,"[0.7,1.0)",55,0.747863,1.0,0.00528768,0.00528768,325.7336,32.5815,18.0749,13.5315
124,27032,0.586667,boundary(r=t),6949,0.0,1.0,0.00987043,0.00987043,126.7921,0.0,0.0,0.0
125,27250,0.583333,"[0.0,0.1)",1803,0.04853,1.0,0.01021303,0.01021303,132.7827,33.3393,32.2449,1.5474
125,27250,0.583333,"[0.1,0.3)",2987,0.192948,1.0,0.00727617,0.00727617,205.4569,33.3869,32.7009,6.3977
125,27250,0.583333,"[0.3,0.5)",1568,0.388082,1.0,0.00531228,0.00531228,341.8683,33.2706,30.8096,11.7383
125,27250,0.583333,"[0.5,0.7)",539,0.575811,1.0,0.00589419,0.00589419,255.9573,33.0141,19.8184,11.3318
125,27250,0.583333,"[0.7,1.0)",53,0.750232,1.0,0.00508817,0.00508817,447.0385,32.6047,20.5038,15.3073
125,27250,0.583333,boundary(r=t),6949,0.0,1.0,0.00986979,0.00986979,126.4776,0.0,0.0,0.0
126,27468,0.58,"[0.0,0.1)",1791,0.050684,1.0,0.00989679,0.00989679,133.9994,33.2736,33.0902,1.6595
126,27468,0.58,"[0.1,0.3)",2975,0.193584,1.0,0.0073253,0.0073253,210.7765,33.4578,33.923,6.599
126,27468,0.58,"[0.3,0.5)",1610,0.383585,1.0,0.0050665,0.0050665,388.0869,33.3408,32.9783,12.4272
126,27468,0.58,"[0.5,0.7)",509,0.577968,1.0,0.00574026,0.00574026,279.6297,33.05,20.5713,11.7974
126,27468,0.58,"[0.7,1.0)",65,0.747903,1.0,0.0050548,0.0050548,517.6835,32.9932,20.8003,15.5951
126,27468,0.58,boundary(r=t),6949,0.0,1.0,0.01001724,0.01001724,126.0901,0.0,0.0,0.0
127,27686,0.576667,"[0.0,0.1)",1835,0.048479,1.0,0.0099896,0.0099896,132.7722,33.2145,33.2428,1.5852
127,27686,0.576667,"[0.1,0.3)",2925,0.192186,1.0,0.0072775,0.0072775,203.0385,33.4301,32.5507,6.3283
127,27686,0.576667,"[0.3,0.5)",1576,0.386468,1.0,0.00523319,0.00523319,374.7009,33.315,31.912,12.1512
127,27686,0.576667,"[0.5,0.7)",556,0.574913,1.0,0.00600574,0.00600574,251.0411,33.0035,19.8553,11.3132
127,27686,0.576667,"[0.7,1.0)",58,0.756466,1.0,0.00521397,0.00521397,363.4637,33.375,18.9305,14.3233
127,27686,0.576667,boundary(r=t),6949,0.0,1.0,0.01007983,0.01007983,125.4051,0.0,0.0,0.0
128,27904,0.573333,"[0.0,0.1)",1792,0.050587,1.0,0.00991033,0.00991033,133.3316,33.3279,32.5468,1.6317
128,27904,0.573333,"[0.1,0.3)",2913,0.194389,1.0,0.00744206,0.00744206,197.6686,33.3397,31.8269,6.2307
128,27904,0.573333,"[0.3,0.5)",1672,0.386408,1.0,0.00519521,0.00519521,377.4146,33.2626,32.3776,12.29
128,27904,0.573333,"[0.5,0.7)",518,0.57282,1.0,0.00575935,0.00575935,259.5975,33.1472,20.0498,11.4184
128,27904,0.573333,"[0.7,1.0)",55,0.743857,1.0,0.00512532,0.00512532,348.3232,32.4291,18.4102,13.6309
128,27904,0.573333,boundary(r=t),6949,0.0,1.0,0.00992607,0.00992607,126.8798,0.0,0.0,0.0
129,28122,0.57,"[0.0,0.1)",1830,0.04955,1.0,0.01011364,0.01011364,132.3427,33.367,32.1346,1.5599
129,28122,0.57,"[0.1,0.3)",2934,0.193721,1.0,0.00723207,0.00723207,208.5393,33.4178,33.2588,6.5019
129,28122,0.57,"[0.3,0.5)",1619,0.387386,1.0,0.00525873,0.00525873,375.9945,33.1475,31.7561,12.1257
129,28122,0.57,"[0.5,0.7)",515,0.574204,1.0,0.00565292,0.00565292,259.4824,33.0135,20.1924,11.4571
129,28122,0.57,"[0.7,1.0)",52,0.746243,1.0,0.00514667,0.00514667,524.3068,32.3716,21.3002,15.9528
129,28122,0.57,boundary(r=t),6949,0.0,1.0,0.01012645,0.01012645,124.8987,0.0,0.0,0.0
130,28340,0.566667,"[0.0,0.1)",1808,0.049249,1.0,0.01010308,0.01010308,131.8362,33.3668,32.2509,1.5773
130,28340,0.566667,"[0.1,0.3)",2895,0.193573,1.0,0.00738154,0.00738154,211.68,33.5238,33.5547,6.6155
130,28340,0.566667,"[0.3,0.5)",1650,0.385693,1.0,0.0051626,0.0051626,398.7132,33.2244,33.0752,12.5436
130,28340,0.566667,"[0.5,0.7)",535,0.576408,1.0,0.00593145,0.00593145,259.3079,32.9057,19.6861,11.24
130,28340,0.566667,"[0.7,1.0)",62,0.745016,1.0,0.00495314,0.00495314,357.6919,32.7952,19.2008,14.2646
130,28340,0.566667,boundary(r=t),6949,0.0,1.0,0.010029,0.010029,125.9998,0.0,0.0,0.0
131,28558,0.563333,"[0.0,0.1)",1884,0.049431,1.0,0.00995609,0.00995609,134.6789,33.2867,32.6025,1.5952
131,28558,0.563333,"[0.1,0.3)",2945,0.192736,1.0,0.00747932,0.00747932,202.7073,33.4714,32.7268,6.3914
131,28558,0.563333,"[0.3,0.5)",1565,0.386977,1.0,0.00510497,0.00510497,389.8631,33.2805,33.2999,12.6479
131,28558,0.563333,"[0.5,0.7)",494,0.574824,1.0,0.00605044,0.00605044,270.5256,33.0554,20.0494,11.499
131,28558,0.563333,"[0.7,1.0)",62,0.740715,1.0,0.00590637,0.00590637,322.3425,32.9845,18.2428,13.5225
131,28558,0.563333,boundary(r=t),6949,0.0,1.0,0.01004199,0.01004199,125.5135,0.0,0.0,0.0
132,28776,0.56,"[0.0,0.1)",1804,0.049762,1.0,0.01005552,0.01005552,132.8042,33.2729,32.544,1.5813
132,28776,0.56,"[0.1,0.3)",3011,0.191435,1.0,0.00751444,0.00751444,199.7914,33.4954,32.072,6.2178
132,28776,0.56,"[0.3,0.5)",1599,0.387244,1.0,0.00521308,0.00521308,364.2238,33.2725,31.7556,12.0682
132,28776,0.56,"[0.5,0.7)",474,0.576157,1.0,0.00583546,0.00583546,243.536,32.9587,19.6152,11.2475
132,28776,0.56,"[0.7,1.0)",62,0.753996,1.0,0.0048258,0.0048258,372.3492,32.781,20.3551,15.436
132,28776,0.56,boundary(r=t),6949,0.0,1.0,0.01006837,0.01006837,125.3466,0.0,0.0,0.0
133,28994,0.556667,"[0.0,0.1)",1824,0.04879,1.0,0.01010832,0.01010832,131.788,33.4825,31.6531,1.5185
133,28994,0.556667,"[0.1,0.3)",2993,0.191828,1.0,0.00754034,0.00754034,200.4864,33.4937,32.6079,6.3452
133,28994,0.556667,"[0.3,0.5)",1575,0.386686,1.0,0.00515184,0.00515184,368.4903,33.2456,31.9275,12.2184
133,28994,0.556667,"[0.5,0.7)",504,0.578504,1.0,0.00571323,0.00571323,295.0895,33.2566,20.9302,12.0554
133,28994,0.556667,"[0.7,1.0)",54,0.745301,1.0,0.0057364,0.0057364,347.8143,32.2361,17.2799,12.9579
133,28994,0.556667,boundary(r=t),6949,0.0,1.0,0.01014199,0.01014199,124.6906,0.0,0.0,0.0
134,29212,0.553333,"[0.0,0.1)",1888,0.051034,1.0,0.01027964,0.01027964,130.3054,33.3463,32.1039,1.5979
134,29212,0.553333,"[0.1,0.3)",2856,0.19454,1.0,0.0073036,0.0073036,216.0122,33.473,33.8177,6.7162
134,29212,0.553333,"[0.3,0.5)",1588,0.384668,1.0,0.00523173,0.00523173,366.5673,33.283,31.8181,12.0776
134,29212,0.553333,"[0.5,0.7)",559,0.577132,1.0,0.00577645,0.00577645,267.5642,33.0981,20.5275,11.7884
134,29212,0.553333,"[0.7,1.0)",59,0.751223,1.0,0.0054932,0.0054932,313.2876,33.0731,18.9737,14.2936
134,29212,0.553333,boundary(r=t),6949,0.0,1.0,0.01015467,0.01015467,124.1418,0.0,0.0,0.0
135,29430,0.55,"[0.0,0.1)",1779,0.049082,1.0,0.01006743,0.01006743,133.3088,33.2542,32.9423,1.5918
135,29430,0.55,"[0.1,0.3)",2987,0.192008,1.0,0.00732581,0.00732581,206.2517,33.4314,33.8682,6.5716
135,29430,0.55,"[0.3,0.5)",1624,0.385763,1.0,0.00519362,0.00519362,369.5197,33.165,32.1405,12.252
135,29430,0.55,"[0.5,0.7)",512,0.576129,1.0,0.00565793,0.00565793,268.3656,32.9881,20.5656,11.7701
135,29430,0.55,"[0.7,1.0)",48,0.733752,1.0,0.00567167,0.00567167,235.3461,32.9809,15.873,11.6677
135,29430,0.55,boundary(r=t),6949,0.0,1.0,0.01011884,0.01011884,125.5007,0.0,0.0,0.0
136,29648,0.546667,"[0.0,0.1)",1831,0.048817,1.0,0.01036334,0.01036334,130.2899,33.5048,31.9714,1.5342
136,29648,0.546667,"[0.1,0.3)",2896,0.192889,1.0,0.00736638,0.00736638,204.6585,33.384,32.5763,6.3624
136,29648,0.546667,"[0.3,0.5)",1624,0.389351,1.0,0.00533163,0.00533163,364.9592,33.353,31.4218,12.0043
136,29648,0.546667,"[0.5,0.7)",545,0.575605,1.0,0.00577756,0.00577756,259.067,33.066,20.0149,11.3815
136,29648,0.546667,"[0.7,1.0)",54,0.744373,1.0,0.00607038,0.00607038,222.3819,32.859,15.5206,11.567
136,29648,0.546667,boundary(r=t),6949,0.0,1.0,0.01014225,0.01014225,125.2397,0.0,0.0,0.0
137,29866,0.543333,"[0.0,0.1)",1842,0.048717,1.0,0.01006707,0.01006707,131.2254,33.3364,32.2452,1.5568
137,29866,0.543333,"[0.1,0.3)",2959,0.193366,1.0,0.00745349,0.00745349,204.3382,33.5129,33.1797,6.5135
137,29866,0.543333,"[0.3,0.5)",1571,0.386387,1.0,0.00524211,0.00524211,342.929,33.3101,30.9818,11.767
137,29866,0.543333,"[0.5,0.7)",519,0.576578,1.0,0.00578142,0.00578142,276.7533,33.0001,20.5833,11.7766
137,29866,0.543333,"[0.7,1.0)",59,0.758401,1.0,0.00580841,0.00580841,313.071,33.1135,18.7296,14.2454
137,29866,0.543333,boundary(r=t),6949,0.0,1.0,0.01019895,0.01019895,124.8072,0.0,0.0,0.0
138,30084,0.54,"[0.0,0.1)",1739,0.048412,1.0,0.01018796,0.01018796,132.1539,33.3517,31.9518,1.5613
138,30084,0.54,"[0.1,0.3)",2989,0.192777,1.0,0.00750992,0.00750992,208.4608,33.476,33.1234,6.495
138,30084,0.54,"[0.3,0.5)",1607,0.384077,1.0,0.00530835,0.00530835,380.067,33.2728,32.2204,12.2079
138,30084,0.54,"[0.5,0.7)",542,0.575654,1.0,0.0057844,0.0057844,287.2299,33.1008,20.7953,11.8278
138,30084,0.54,"[0.7,1.0)",73,0.743188,1.0,0.00561827,0.00561827,358.5147,32.5312,18.3405,13.6877
138,30084,0.54,boundary(r=t),6949,0.0,1.0,0.01028106,0.01028106,125.1404,0.0,0.0,0.0
139,30302,0.536667,"[0.0,0.1)",1867,0.049151,1.0,0.01051239,0.01051239,131.5714,33.4902,31.4466,1.5416
139,30302,0.536667,"[0.1,0.3)",2928,0.19219,1.0,0.00748788,0.00748788,200.5649,33.3424,32.7795,6.3939
139,30302,0.536667,"[0.3,0.5)",1573,0.384732,1.0,0.00526002,0.00526002,354.4217,33.2578,31.1302,11.8082
139,30302,0.536667,"[0.5,0.7)",533,0.566338,1.0,0.00564317,0.00564317,267.8178,33.0496,20.5983,11.5766
139,30302,0.536667,"[0.7,1.0)",49,0.756607,1.0,0.00552317,0.00552317,406.8436,32.4205,19.5685,14.8541
139,30302,0.536667,boundary(r=t),6949,0.0,1.0,0.01024835,0.01024835,124.4503,0.0,0.0,0.0
140,30520,0.533333,"[0.0,0.1)",1790,0.048768,1.0,0.00980259,0.00980259,135.3578,33.3119,32.6177,1.5696
140,30520,0.533333,"[0.1,0.3)",2985,0.192609,1.0,0.0074703,0.0074703,199.0379,33.5297,32.5731,6.3298
140,30520,0.533333,"[0.3,0.5)",1599,0.384239,1.0,0.00526441,0.00526441,385.9736,33.3122,32.289,12.2752
140,30520,0.533333,"[0.5,0.7)",515,0.573767,1.0,0.00562413,0.00562413,268.8733,33.0625,20.7979,11.8076
140,30520,0.533333,"[0.7,1.0)",61,0.753271,1.0,0.00505327,0.00505327,492.2001,32.7604,20.8183,15.6503
140,30520,0.533333,boundary(r=t),6949,0.0,1.0,0.01028334,0.01028334,124.4209,0.0,0.0,0.0
141,30738,0.53,"[0.0,0.1)",1805,0.049236,1.0,0.01033184,0.01033184,129.7848,33.2429,33.1872,1.6253
141,30738,0.53,"[0.1,0.3)",2866,0.194069,1.0,0.00749103,0.00749103,203.1548,33.4982,33.0597,6.4479
141,30738,0.53,"[0.3,0.5)",1642,0.387141,1.0,0.00530573,0.00530573,354.6491,33.2956,31.575,12.0821
141,30738,0.53,"[0.5,0.7)",572,0.574646,1.0,0.00596401,0.00596401,259.0897,33.013,20.144,11.4537
141,30738,0.53,"[0.7,1.0)",65,0.743514,1.0,0.00600877,0.00600877,252.2023,32.715,16.1534,12.0017
141,30738,0.53,boundary(r=t),6949,0.0,1.0,0.01024462,0.01024462,124.6442,0.0,0.0,0.0
142,30956,0.526667,"[0.0,0.1)",1861,0.050933,1.0,0.01005671,0.01005671,131.2031,33.4032,31.8591,1.5895
142,30956,0.526667,"[0.1,0.3)",2970,0.193048,1.0,0.00734031,0.00734031,207.8169,33.4426,33.4979,6.5483
142,30956,0.526667,"[0.3,0.5)",1571,0.3876,1.0,0.00505733,0.00505733,390.8085,33.2907,32.9135,12.6059
142,30956,0.526667,"[0.5,0.7)",486,0.577376,1.0,0.00545147,0.00545147,323.628,33.2293,22.2112,12.6653
142,30956,0.526667,"[0.7,1.0)",62,0.750145,1.0,0.00532476,0.00532476,427.7356,33.3135,20.3593,15.2521
142,30956,0.526667,boundary(r=t),6949,0.0,1.0,0.01030703,0.01030703,124.8046,0.0,0.0,0.0
143,31174,0.523333,"[0.0,0.1)",1837,0.049388,1.0,0.01001946,0.01001946,133.4768,33.3715,32.1058,1.5796
143,31174,0.523333,"[0.1,0.3)",2946,0.191695,1.0,0.00739511,0.00739511,209.1439,33.5162,33.5559,6.5089
143,31174,0.523333,"[0.3,0.5)",1563,0.387739,1.0,0.00527085,0.00527085,372.9466,33.2715,31.6806,12.1438
143,31174,0.523333,"[0.5,0.7)",541,0.581041,1.0,0.00575618,0.00575618,279.2438,33.0549,21.3119,12.2745
143,31174,0.523333,"[0.7,1.0)",63,0.754621,1.0,0.00471349,0.00471349,476.9781,32.7551,21.5307,16.3278
143,31174,0.523333,boundary(r=t),6949,0.0,1.0,0.01028128,0.01028128,124.3656,0.0,0.0,0.0
144,31392,0.52,"[0.0,0.1)",1760,0.051195,1.0,0.01000143,0.01000143,131.9571,33.3042,32.6998,1.6298
144,31392,0.52,"[0.1,0.3)",2996,0.193595,1.0,0.00744203,0.00744203,199.3261,33.4512,32.5649,6.3715
144,31392,0.52,"[0.3,0.5)",1590,0.384269,1.0,0.0052651,0.0052651,380.394,33.2955,32.5561,12.325
144,31392,0.52,"[0.5,0.7)",542,0.579292,1.0,0.00569792,0.00569792,266.8164,33.2336,20.6662,11.8933
144,31392,0.52,"[0.7,1.0)",62,0.744398,1.0,0.00525537,0.00525537,277.567,32.9697,17.5264,13.0303
144,31392,0.52,boundary(r=t),6949,0.0,1.0,0.01026009,0.01026009,125.287,0.0,0.0,0.0
145,31610,0.516667,"[0.0,0.1)",1825,0.049502,1.0,0.01052267,0.01052267,129.2243,33.4238,31.8753,1.561
145,31610,0.516667,"[0.1,0.3)",2952,0.192204,1.0,0.00731095,0.00731095,212.8236,33.4075,34.528,6.7156
145,31610,0.516667,"[0.3,0.5)",1622,0.386513,1.0,0.00509303,0.00509303,402.0759,33.438,33.8305,12.9042
145,31610,0.516667,"[0.5,0.7)",487,0.573314,1.0,0.00578684,0.00578684,283.1171,33.1233,21.3828,12.1561
145,31610,0.516667,"[0.7,1.0)",64,0.751706,1.0,0.00507386,0.00507386,417.9904,32.9817,19.7915,14.9542
145,31610,0.516667,boundary(r=t),6949,0.0,1.0,0.01032279,0.01032279,124.0147,0.0,0.0,0.0
146,31828,0.513333,"[0.0,0.1)",1846,0.048731,1.0,0.01049438,0.01049438,131.1603,33.3663,32.6697,1.5775
146,31828,0.513333,"[0.1,0.3)",2878,0.192618,1.0,0.00749996,0.00749996,211.4237,33.4035,33.8728,6.6208
146,31828,0.513333,"[0.3,0.5)",1600,0.385033,1.0,0.00522188,0.00522188,376.831,33.2493,32.3747,12.3233
146,31828,0.513333,"[0.5,0.7)",559,0.578279,1.0,0.00606345,0.00606345,263.1164,33.0704,20.3681,11.6815
146,31828,0.513333,"[0.7,1.0)",67,0.741351,1.0,0.00599159,0.00599159,254.8216,33.501,16.2032,12.0538
146,31828,0.513333,boundary(r=t),6949,0.0,1.0,0.0103361,0.0103361,124.9394,0.0,0.0,0.0
147,32046,0.51,"[0.0,0.1)",1884,0.049625,1.0,0.01024309,0.01024309,132.6073,33.3145,32.5762,1.5948
147,32046,0.51,"[0.1,0.3)",2960,0.191753,1.0,0.00750245,0.00750245,206.6861,33.4083,33.5636,6.5348
147,32046,0.51,"[0.3,0.5)",1533,0.386062,1.0,0.00522568,0.00522568,373.4561,33.3514,32.4983,12.3262
147,32046,0.51,"[0.5,0.7)",511,0.576957,1.0,0.00551832,0.00551832,299.5336,33.0283,21.415,12.2293
147,32046,0.51,"[0.7,1.0)",62,0.757297,1.0,0.00640984,0.00640984,256.7398,32.1742,16.2895,12.3329
147,32046,0.51,boundary(r=t),6949,0.0,1.0,0.01045243,0.01045243,123.2087,0.0,0.0,0.0
148,32264,0.506667,"[0.0,0.1)",1771,0.048405,1.0,0.01063197,0.01063197,128.9674,33.4996,32.3587,1.54
148,32264,0.506667,"[0.1,0.3)",3006,0.192486,1.0,0.00752749,0.00752749,200.7797,33.5026,33.0336,6.4307
148,32264,0.506667,"[0.3,0.5)",1565,0.386094,1.0,0.00516782,0.00516782,376.4045,33.3034,32.6649,12.4648
148,32264,0.506667,"[0.5,0.7)",556,0.579611,1.0,0.00571336,0.00571336,272.9197,33.2312,20.9687,12.0489
148,32264,0.506667,"[0.7,1.0)",52,0.742257,1.0,0.00442236,0.00442236,424.8646,33.3588,21.192,15.7798
148,32264,0.506667,boundary(r=t),6949,0.0,1.0,0.01026618,0.01026618,124.8436,0.0,0.0,0.0
149,32482,0.503333,"[0.0,0.1)",1786,0.049465,1.0,0.01064657,0.01064657,129.1307,33.43,31.8404,1.5344
149,32482,0.503333,"[0.1,0.3)",2907,0.192509,1.0,0.00759795,0.00759795,209.0051,33.4459,33.6372,6.5705
149,32482,0.503333,"[0.3,0.5)",1677,0.389022,1.0,0.00524356,0.00524356,366.7999,33.1635,31.8356,12.201
149,32482,0.503333,"[0.5,0.7)",527,0.575348,1.0,0.00559076,0.00559076,271.4474,33.0538,20.6416,11.7746
149,32482,0.503333,"[0.7,1.0)",53,0.745326,1.0,0.00515547,0.00515547,344.5955,32.4437,19.0875,14.2966
149,32482,0.503333,boundary(r=t),6949,0.0,1.0,0.01031421,0.01031421,123.2947,0.0,0.0,0.0
150,32700,0.5,"[0.0,0.1)",1771,0.048742,1.0,0.01020785,0.01020785,130.4495,33.3908,32.4813,1.5673
150,32700,0.5,"[0.1,0.3)",2960,0.193386,1.0,0.00757399,0.00757399,212.3995,33.5006,33.7468,6.6274
150,32700,0.5,"[0.3,0.5)",1634,0.386866,1.0,0.00530687,0.00530687,385.0744,33.2432,32.5885,12.3963
150,32700,0.5,"[0.5,0.7)",522,0.574839,1.0,0.00572019,0.00572019,268.3938,33.2761,20.5383,11.7025
150,32700,0.5,"[0.7,1.0)",63,0.74815,1.0,0.00551001,0.00551001,273.2247,32.7523,17.4302,13.0598
150,32700,0.5,boundary(r=t),6949,0.0,1.0,0.01052938,0.01052938,123.3841,0.0,0.0,0.0
151,32918,0.496667,"[0.0,0.1)",1851,0.049454,1.0,0.01055394,0.01055394,128.3954,33.4054,32.3539,1.574
151,32918,0.496667,"[0.1,0.3)",2920,0.192387,1.0,0.00769741,0.00769741,205.0175,33.5644,33.8704,6.5945
151,32918,0.496667,"[0.3,0.5)",1578,0.386891,1.0,0.00505939,0.00505939,391.8085,33.2179,32.891,12.6077
151,32918,0.496667,"[0.5,0.7)",545,0.57421,1.0,0.00574287,0.00574287,259.8437,33.1798,20.8089,11.8354
151,32918,0.496667,"[0.7,1.0)",56,0.741577,1.0,0.00541891,0.00541891,466.7816,33.1057,20.8077,15.5649
151,32918,0.496667,boundary(r=t),6949,0.0,1.0,0.01045218,0.01045218,123.6303,0.0,0.0,0.0
152,33136,0.493333,"[0.0,0.1)",1832,0.050209,1.0,0.0105152,0.0105152,129.6878,33.3671,32.1911,1.6183
152,33136,0.493333,"[0.1,0.3)",2897,0.192707,1.0,0.00754854,0.00754854,205.3816,33.5094,33.3452,6.4973
152,33136,0.493333,"[0.3,0.5)",1621,0.384658,1.0,0.00521599,0.00521599,391.3142,33.159,33.1485,12.5423
152,33136,0.493333,"[0.5,0.7)",552,0.575485,1.0,0.00582497,0.00582497,280.1958,33.078,21.1855,12.0863
152,33136,0.493333,"[0.7,1.0)",48,0.752736,1.0,0.00527277,0.00527277,369.1286,32.2829,19.2855,14.5876
152,33136,0.493333,boundary(r=t),6949,0.0,1.0,0.01044335,0.01044335,124.0355,0.0,0.0,0.0
153,33354,0.49,"[0.0,0.1)",1806,0.049432,1.0,0.01036304,0.01036304,132.382,33.2975,33.502,1.6493
153,33354,0.49,"[0.1,0.3)",2933,0.192446,1.0,0.00739203,0.00739203,203.1242,33.4616,33.4026,6.5197
153,33354,0.49,"[0.3,0.5)",1588,0.386186,1.0,0.00519025,0.00519025,378.7862,33.3076,32.3883,12.3148
153,33354,0.49,"[0.5,0.7)",566,0.576926,1.0,0.00565905,0.00565905,303.8051,33.0934,21.7619,12.489
153,33354,0.49,"[0.7,1.0)",57,0.739412,1.0,0.00572761,0.00572761,298.9953,32.9188,19.3498,14.2651
153,33354,0.49,boundary(r=t),6949,0.0,1.0,0.01042478,0.01042478,124.523,0.0,0.0,0.0
154,33572,0.486667,"[0.0,0.1)",1749,0.049646,1.0,0.01037717,0.01037717,129.4246,33.4524,32.1227,1.5693
154,33572,0.486667,"[0.1,0.3)",2990,0.192917,1.0,0.00756961,0.00756961,202.9056,33.4882,33.7194,6.5749
154,33572,0.486667,"[0.3,0.5)",1608,0.385232,1.0,0.00513884,0.00513884,400.3841,33.334,33.7642,12.8188
154,33572,0.486667,"[0.5,0.7)",538,0.573674,1.0,0.00564738,0.00564738,258.3115,32.9836,20.5933,11.6631
154,33572,0.486667,"[0.7,1.0)",65,0.742532,1.0,0.00569736,0.00569736,427.2373,32.9812,20.6433,15.4833
154,33572,0.486667,boundary(r=t),6949,0.0,1.0,0.01039274,0.01039274,124.5684,0.0,0.0,0.0
155,33790,0.483333,"[0.0,0.1)",1789,0.049423,1.0,0.01080583,0.01080583,129.4667,33.3853,32.6407,1.5902
155,33790,0.483333,"[0.1,0.3)",2940,0.192311,1.0,0.00758276,0.00758276,205.9521,33.4944,33.1223,6.4726
155,33790,0.483333,"[0.3,0.5)",1602,0.385431,1.0,0.0052281,0.0052281,362.041,33.311,31.5298,11.979
155,33790,0.483333,"[0.5,0.7)",552,0.57428,1.0,0.00576334,0.00576334,273.8197,33.1128,20.7294,11.7675
155,33790,0.483333,"[0.7,1.0)",67,0.75825,1.0,0.00561271,0.00561271,252.2241,32.9156,17.2442,13.1127
155,33790,0.483333,boundary(r=t),6949,0.0,1.0,0.01049612,0.01049612,123.4828,0.0,0.0,0.0
156,34008,0.48,"[0.0,0.1)",1827,0.048808,1.0,0.010561,0.010561,129.8564,33.3844,32.2918,1.5685
156,34008,0.48,"[0.1,0.3)",3021,0.191566,1.0,0.00753972,0.00753972,206.0491,33.518,33.6891,6.5545
156,34008,0.48,"[0.3,0.5)",1530,0.388109,1.0,0.00527727,0.00527727,388.7125,33.3094,32.6467,12.4661
156,34008,0.48,"[0.5,0.7)",512,0.572574,1.0,0.00560877,0.00560877,296.4733,33.0902,21.7179,12.2817
156,34008,0.48,"[0.7,1.0)",60,0.752921,1.0,0.00496503,0.00496503,349.849,33.308,19.863,15.0227
156,34008,0.48,boundary(r=t),6949,0.0,1.0,0.01047329,0.01047329,122.9976,0.0,0.0,0.0
157,34226,0.476667,"[0.0,0.1)",1821,0.048797,1.0,0.01042939,0.01042939,132.155,33.3922,33.263,1.6054
157,34226,0.476667,"[0.1,0.3)",2953,0.193282,1.0,0.0074603,0.0074603,213.5193,33.4486,34.1221,6.6586
157,34226,0.476667,"[0.3,0.5)",1596,0.385967,1.0,0.00522796,0.00522796,403.3019,33.194,33.7591,12.8479
157,34226,0.476667,"[0.5,0.7)",529,0.573092,1.0,0.00579165,0.00579165,280.4331,33.093,21.4223,12.2038
157,34226,0.476667,"[0.7,1.0)",51,0.745147,1.0,0.00548789,0.00548789,363.6245,32.6971,19.1409,14.3763
157,34226,0.476667,boundary(r=t),6949,0.0,1.0,0.0105203,0.0105203,123.7784,0.0,0.0,0.0
158,34444,0.473333,"[0.0,0.1)",1823,0.048604,1.0,0.01043353,0.01043353,129.9159,33.3744,31.4829,1.5173
158,34444,0.473333,"[0.1,0.3)",2896,0.192449,1.0,0.00747538,0.00747538,200.688,33.4344,32.8793,6.3828
158,34444,0.473333,"[0.3,0.5)",1637,0.387305,1.0,0.00532637,0.00532637,379.6727,33.3297,32.4299,12.3587
158,34444,0.473333,"[0.5,0.7)",552,0.570841,1.0,0.00572007,0.00572007,276.9208,33.2309,21.0717,11.8698
158,34444,0.473333,"[0.7,1.0)",42,0.753041,1.0,0.00467139,0.00467139,370.9055,31.8786,19.2823,14.392
158,34444,0.473333,boundary(r=t),6949,0.0,1.0,0.01067735,0.01067735,122.9888,0.0,0.0,0.0
159,34662,0.47,"[0.0,0.1)",1799,0.048837,1.0,0.01031563,0.01031563,133.061,33.3312,32.4541,1.5841
159,34662,0.47,"[0.1,0.3)",2865,0.191688,1.0,0.0075259,0.0075259,208.702,33.4445,33.9992,6.6106
159,34662,0.47,"[0.3,0.5)",1721,0.38362,1.0,0.00538204,0.00538204,390.9779,33.3128,32.7834,12.389
159,34662,0.47,"[0.5,0.7)",523,0.577671,1.0,0.0057828,0.0057828,288.4954,33.1257,20.9896,12.0655
159,34662,0.47,"[0.7,1.0)",42,0.745562,1.0,0.00510964,0.00510964,366.4807,32.3042,19.3873,14.3829
159,34662,0.47,boundary(r=t),6949,0.0,1.0,0.0105625,0.0105625,123.8235,0.0,0.0,0.0
160,34880,0.466667,"[0.0,0.1)",1830,0.049436,1.0,0.01057945,0.01057945,129.2577,33.3787,32.2072,1.5741
160,34880,0.466667,"[0.1,0.3)",2924,0.193193,1.0,0.00760246,0.00760246,202.6402,33.4483,32.9753,6.431
160,34880,0.466667,"[0.3,0.5)",1591,0.386515,1.0,0.0054215,0.0054215,383.9467,33.3176,33.018,12.5229
160,34880,0.466667,"[0.5,0.7)",547,0.57531,1.0,0.00586359,0.00586359,279.082,33.0881,21.1462,12.1015
160,34880,0.466667,"[0.7,1.0)",58,0.746485,1.0,0.00535155,0.00535155,326.8142,32.7985,18.185,13.608
160,34880,0.466667,boundary(r=t),6949,0.0,1.0,0.0105731,0.0105731,123.3885,0.0,0.0,0.0
161,35098,0.463333,"[0.0,0.1)",1855,0.04959,1.0,0.01033111,0.01033111,131.0026,33.2342,32.8053,1.5967
161,35098,0.463333,"[0.1,0.3)",2909,0.192317,1.0,0.00762046,0.00762046,208.174,33.5036,34.1896,6.6568
161,35098,0.463333,"[0.3,0.5)",1597,0.387078,1.0,0.00534241,0.00534241,376.6754,33.3214,32.0377,12.2097
161,35098,0.463333,"[0.5,0.7)",527,0.572741,1.0,0.0060722,0.0060722,258.162,32.9987,20.1439,11.4455
161,35098,0.463333,"[0.7,1.0)",62,0.74908,1.0,0.00581141,0.00581141,288.8374,32.3982,17.4664,13.1916
161,35098,0.463333,boundary(r=t),6949,0.0,1.0,0.01062537,0.01062537,122.5773,0.0,0.0,0.0
162,35316,0.46,"[0.0,0.1)",1828,0.048485,1.0,0.01048235,0.01048235,134.5871,33.212,33.0976,1.5836
162,35316,0.46,"[0.1,0.3)",2898,0.191944,1.0,0.00771071,0.00771071,208.1254,33.4735,34.1479,6.6289
162,35316,0.46,"[0.3,0.5)",1612,0.38787,1.0,0.00542361,0.00542361,402.8351,33.3694,33.0795,12.6405
162,35316,0.46,"[0.5,0.7)",562,0.571174,1.0,0.00577594,0.00577594,275.1505,33.0507,21.1102,11.9108
162,35316,0.46,"[0.7,1.0)",50,0.7358,1.0,0.00591075,0.00591075,293.764,33.1281,16.7926,12.4347
162,35316,0.46,boundary(r=t),6949,0.0,1.0,0.01068462,0.01068462,122.3981,0.0,0.0,0.0
163,35534,0.456667,"[0.0,0.1)",1831,0.049136,1.0,0.01059146,0.01059146,130.1554,33.3572,32.2685,1.5767
163,35534,0.456667,"[0.1,0.3)",2942,0.19389,1.0,0.00744181,0.00744181,205.9422,33.5359,33.7243,6.6313
163,35534,0.456667,"[0.3,0.5)",1585,0.385732,1.0,0.00536341,0.00536341,386.0782,33.3363,32.8045,12.4946
163,35534,0.456667,"[0.5,0.7)",544,0.575974,1.0,0.00582291,0.00582291,273.8683,33.1387,20.9742,12.0185
163,35534,0.456667,"[0.7,1.0)",48,0.740787,1.0,0.00467481,0.00467481,333.525,33.6019,19.2853,14.3281
163,35534,0.456667,boundary(r=t),6949,0.0,1.0,0.01068334,0.01068334,122.8098,0.0,0.0,0.0
164,35752,0.453333,"[0.0,0.1)",1743,0.049194,1.0,0.01059911,0.01059911,130.2325,33.3237,31.7753,1.5444
164,35752,0.453333,"[0.1,0.3)",2999,0.19115,1.0,0.00761733,0.00761733,198.7576,33.5171,32.9934,6.3778
164,35752,0.453333,"[0.3,0.5)",1632,0.385564,1.0,0.00553292,0.00553292,354.351,33.3548,31.5098,11.9821
164,35752,0.453333,"[0.5,0.7)",517,0.578399,1.0,0.00566231,0.00566231,288.8302,33.0127,21.093,12.1193
164,35752,0.453333,"[0.7,1.0)",59,0.749128,1.0,0.00493627,0.00493627,279.1037,33.1987,18.6048,13.9415
164,35752,0.453333,boundary(r=t),6949,0.0,1.0,0.01064316,0.01064316,122.5765,0.0,0.0,0.0
165,35970,0.45,"[0.0,0.1)",1877,0.049281,1.0,0.01042427,0.01042427,129.7698,33.3078,32.4261,1.5838
165,35970,0.45,"[0.1,0.3)",2908,0.190368,1.0,0.00785806,0.00785806,200.0881,33.4793,32.6107,6.3208
165,35970,0.45,"[0.3,0.5)",1585,0.388033,1.0,0.0053666,0.0053666,377.3546,33.2969,31.9879,12.2583
165,35970,0.45,"[0.5,0.7)",510,0.576681,1.0,0.00599954,0.00599954,249.7086,33.1176,20.0335,11.4657
165,35970,0.45,"[0.7,1.0)",70,0.743273,1.0,0.00556019,0.00556019,483.9031,33.058,19.9383,14.9682
165,35970,0.45,boundary(r=t),6949,0.0,1.0,0.01076902,0.01076902,122.5019,0.0,0.0,0.0
166,36188,0.446667,"[0.0,0.1)",1841,0.049344,1.0,0.01070952,0.01070952,128.8058,33.4269,31.4609,1.5366
166,36188,0.446667,"[0.1,0.3)",2915,0.19412,1.0,0.00759431,0.00759431,206.5834,33.4915,33.3824,6.5523
166,36188,0.446667,"[0.3,0.5)",1630,0.385574,1.0,0.00532092,0.00532092,389.6667,33.3424,32.8091,12.4444
166,36188,0.446667,"[0.5,0.7)",510,0.579761,1.0,0.00578817,0.00578817,280.4091,33.209,20.5976,11.8487
166,36188,0.446667,"[0.7,1.0)",54,0.746855,1.0,0.00558553,0.00558553,512.6316,32.6392,21.8819,16.3426
166,36188,0.446667,boundary(r=t),6949,0.0,1.0,0.01083197,0.01083197,122.6485,0.0,0.0,0.0
167,36406,0.443333,"[0.0,0.1)",1834,0.049963,1.0,0.01097239,0.01097239,127.9325,33.4228,31.8995,1.5524
167,36406,0.443333,"[0.1,0.3)",2824,0.193443,1.0,0.00760216,0.00760216,206.8101,33.4285,33.4233,6.5429
167,36406,0.443333,"[0.3,0.5)",1688,0.38687,1.0,0.00539926,0.00539926,391.6121,33.2718,32.9891,12.5877
167,36406,0.443333,"[0.5,0.7)",551,0.57392,1.0,0.00596337,0.00596337,273.5877,33.0487,20.8676,11.9051
167,36406,0.443333,"[0.7,1.0)",53,0.746627,1.0,0.00513224,0.00513224,326.8639,33.6201,19.0985,14.3961
167,36406,0.443333,boundary(r=t),6949,0.0,1.0,0.01082854,0.01082854,122.4914,0.0,0.0,0.0
168,36624,0.44,"[0.0,0.1)",1854,0.049648,1.0,0.01069857,0.01069857,128.7145,33.2254,32.2306,1.5779
168,36624,0.44,"[0.1,0.3)",2918,0.193278,1.0,0.00756046,0.00756046,202.0531,33.3959,33.2212,6.4679
168,36624,0.44,"[0.3,0.5)",1576,0.387058,1.0,0.00530056,0.00530056,365.3476,33.2652,32.0897,12.2432
168,36624,0.44,"[0.5,0.7)",538,0.57771,1.0,0.00619162,0.00619162,267.1813,32.9836,20.3995,11.6587
168,36624,0.44,"[0.7,1.0)",64,0.746405,1.0,0.00575971,0.00575971,307.5768,32.7604,18.216,13.6954
168,36624,0.44,boundary(r=t),6949,0.0,1.0,0.01078755,0.01078755,122.3675,0.0,0.0,0.0
169,36842,0.436667,"[0.0,0.1)",1868,0.050441,1.0,0.01087797,0.01087797,128.9867,33.4186,32.339,1.6095
169,36842,0.436667,"[0.1,0.3)",2878,0.194337,1.0,0.00764277,0.00764277,205.5247,33.5266,33.7893,6.6308
169,36842,0.436667,"[0.3,0.5)",1629,0.387239,1.0,0.00543673,0.00543673,363.373,33.3893,31.5299,12.0654
169,36842,0.436667,"[0.5,0.7)",526,0.5712,1.0,0.00572243,0.00572243,310.6299,33.3034,21.9635,12.3992
169,36842,0.436667,"[0.7,1.0)",49,0.747153,1.0,0.00532036,0.00532036,666.1296,33.0086,20.9056,15.9708
169,36842,0.436667,boundary(r=t),6949,0.0,1.0,0.01089879,0.01089879,121.8623,0.0,0.0,0.0
170,37060,0.433333,"[0.0,0.1)",1911,0.04889,1.0,0.01069338,0.01069338,129.6243,33.4381,32.0407,1.5512
170,37060,0.433333,"[0.1,0.3)",2888,0.192419,1.0,0.00758023,0.00758023,208.073,33.523,33.8333,6.6304
170,37060,0.433333,"[0.3,0.5)",1591,0.387468,1.0,0.00547217,0.00547217,384.8018,33.4384,32.8775,12.5686
170,37060,0.433333,"[0.5,0.7)",506,0.580217,1.0,0.005808,0.005808,274.0469,33.0298,21.1979,12.1894
170,37060,0.433333,"[0.7,1.0)",54,0.738019,1.0,0.0055731,0.0055731,692.9956,33.4725,23.0301,17.1172
170,37060,0.433333,boundary(r=t),6949,0.0,1.0,0.01085722,0.01085722,122.0735,0.0,0.0,0.0
171,37278,0.43,"[0.0,0.1)",1838,0.050671,1.0,0.01062569,0.01062569,129.0954,33.4569,32.199,1.6026
171,37278,0.43,"[0.1,0.3)",2973,0.1928,1.0,0.00777916,0.00777916,202.3623,33.525,33.1525,6.5075
171,37278,0.43,"[0.3,0.5)",1577,0.383865,1.0,0.00542065,0.00542065,376.4874,33.2347,32.4606,12.2899
171,37278,0.43,"[0.5,0.7)",505,0.574551,1.0,0.00572866,0.00572866,264.9726,33.2324,21.1333,12.0751
171,37278,0.43,"[0.7,1.0)",57,0.742842,1.0,0.00575249,0.00575249,250.2633,32.6951,16.3742,12.1986
171,37278,0.43,boundary(r=t),6949,0.0,1.0,0.01083375,0.01083375,122.8048,0.0,0.0,0.0
172,37496,0.426667,"[0.0,0.1)",1914,0.049799,1.0,0.01075253,0.01075253,128.3383,33.3462,32.0293,1.5856
172,37496,0.426667,"[0.1,0.3)",2884,0.19156,1.0,0.00781048,0.00781048,201.1254,33.4611,32.8948,6.4146
172,37496,0.426667,"[0.3,0.5)",1588,0.386264,1.0,0.00553124,0.00553124,376.4066,33.2795,32.5591,12.3475
172,37496,0.426667,"[0.5,0.7)",507,0.57441,1.0,0.00605919,0.00605919,268.1377,32.9524,20.3878,11.606
172,37496,0.426667,"[0.7,1.0)",57,0.744255,1.0,0.00539559,0.00539559,344.4242,32.8333,19.3864,14.4308
172,37496,0.426667,boundary(r=t),6949,0.0,1.0,0.01087821,0.01087821,122.0063,0.0,0.0,0.0
173,37714,0.423333,"[0.0,0.1)",1821,0.049135,1.0,0.01074094,0.01074094,129.4841,33.4254,32.1656,1.5644
173,37714,0.423333,"[0.1,0.3)",2864,0.193408,1.0,0.00785952,0.00785952,204.8103,33.4853,33.1216,6.539
173,37714,0.423333,"[0.3,0.5)",1653,0.386291,1.0,0.00538923,0.00538923,392.9368,33.3156,33.1353,12.5909
173,37714,0.423333,"[0.5,0.7)",533,0.571984,1.0,0.00584582,0.00584582,293.3935,33.1783,21.6262,12.3063
173,37714,0.423333,"[0.7,1.0)",79,0.744398,1.0,0.00540445,0.00540445,352.0708,33.086,19.632,14.6192
173,37714,0.423333,boundary(r=t),6949,0.0,1.0,0.01076823,0.01076823,122.5498,0.0,0.0,0.0
