round,global_step,frac_of_T,s,beta_h005,beta_h025,beta_h050,beta_h075,beta_h095,is_best,no_improve
1,220,0.003333,0.996667,1.0,1.0,1.0,1.0,1.0,1,0
2,440,0.006667,0.993333,1.0,1.0,1.0,1.0,1.0,1,0
3,660,0.01,0.99,1.0,1.0,1.0,1.0,1.0,1,0
4,880,0.013333,0.986667,1.0,1.0,1.0,1.0,1.0,0,1
5,1100,0.016667,0.983333,1.0,1.0,1.0,1.0,1.0,1,0
6,1320,0.02,0.98,1.0,1.0,1.0,1.0,1.0,0,1
7,1540,0.023333,0.976667,1.0,1.0,1.0,1.0,1.0,0,2
8,1760,0.026667,0.973333,1.0,1.0,1.0,1.0,1.0,1,0
9,1980,0.03,0.97,1.0,1.0,1.0,1.0,1.0,0,1
10,2200,0.033333,0.966667,1.0,1.0,1.0,1.0,1.0,0,2
11,2420,0.036667,0.963333,1.0,1.0,1.0,1.0,1.0,0,3
12,2640,0.04,0.96,1.0,1.0,1.0,1.0,1.0,1,0
13,2860,0.043333,0.956667,1.0,1.0,1.0,1.0,1.0,0,1
14,3080,0.046667,0.953333,1.0,1.0,1.0,1.0,1.0,0,2
15,3300,0.05,0.95,1.0,1.0,1.0,1.0,1.0,0,3
16,3520,0.053333,0.946667,1.0,1.0,1.0,1.0,1.0,0,4
17,3740,0.056667,0.943333,1.0,1.0,1.0,1.0,1.0,0,5
18,3960,0.06,0.94,1.0,1.0,1.0,1.0,1.0,0,6
19,4180,0.063333,0.936667,1.0,1.0,1.0,1.0,1.0,0,7
20,4400,0.066667,0.933333,1.0,1.0,1.0,1.0,1.0,0,8
21,4620,0.07,0.93,1.0,1.0,1.0,1.0,1.0,0,9
22,4840,0.073333,0.926667,1.0,1.0,1.0,1.0,1.0,0,10
23,5060,0.076667,0.923333,1.0,1.0,1.0,1.0,1.0,1,0
24,5280,0.08,0.92,1.0,1.0,1.0,1.0,1.0,0,1
25,5500,0.083333,0.916667,1.0,1.0,1.0,1.0,1.0,0,2
26,5720,0.086667,0.913333,1.0,1.0,1.0,1.0,1.0,1,0
27,5940,0.09,0.91,1.0,1.0,1.0,1.0,1.0,1,0
28,6160,0.093333,0.906667,1.0,1.0,1.0,1.0,1.0,0,1
29,6380,0.096667,0.903333,1.0,1.0,1.0,1.0,1.0,0,2
30,6600,0.1,0.9,1.0,1.0,1.0,1.0,1.0,0,3
31,6820,0.103333,0.896667,1.0,1.0,1.0,1.0,1.0,0,4
32,7040,0.106667,0.893333,1.0,1.0,1.0,1.0,1.0,0,5
33,7260,0.11,0.89,1.0,1.0,1.0,1.0,1.0,1,0
34,7480,0.113333,0.886667,1.0,1.0,1.0,1.0,1.0,0,1
35,7700,0.116667,0.883333,1.0,1.0,1.0,1.0,1.0,0,2
36,7920,0.12,0.88,1.0,1.0,1.0,1.0,1.0,0,3
37,8140,0.123333,0.876667,1.0,1.0,1.0,1.0,1.0,0,4
38,8360,0.126667,0.873333,1.0,1.0,1.0,1.0,1.0,0,5
39,8580,0.13,0.87,1.0,1.0,1.0,1.0,1.0,0,6
40,8800,0.133333,0.866667,1.0,1.0,1.0,1.0,1.0,0,7
41,9020,0.136667,0.863333,1.0,1.0,1.0,1.0,1.0,0,8
42,9240,0.14,0.86,1.0,1.0,1.0,1.0,1.0,0,9
43,9460,0.143333,0.856667,1.0,1.0,1.0,1.0,1.0,0,10
44,9680,0.146667,0.853333,1.0,1.0,1.0,1.0,1.0,0,11
45,9900,0.15,0.85,1.0,1.0,1.0,1.0,1.0,0,12
46,10120,0.153333,0.846667,1.0,1.0,1.0,1.0,1.0,0,13
47,10340,0.156667,0.843333,1.0,1.0,1.0,1.0,1.0,0,14
48,10560,0.16,0.84,1.0,1.0,1.0,1.0,1.0,0,15
49,10780,0.163333,0.836667,1.0,1.0,1.0,1.0,1.0,0,16
50,11000,0.166667,0.833333,1.0,1.0,1.0,1.0,1.0,0,17
51,11220,0.17,0.83,1.0,1.0,1.0,1.0,1.0,0,18
52,11440,0.173333,0.826667,1.0,1.0,1.0,1.0,1.0,0,19
53,11660,0.176667,0.823333,1.0,1.0,1.0,1.0,1.0,1,0
54,11880,0.18,0.82,1.0,1.0,1.0,1.0,1.0,0,1
55,12100,0.183333,0.816667,1.0,1.0,1.0,1.0,1.0,0,2
56,12320,0.186667,0.813333,1.0,1.0,1.0,1.0,1.0,0,3
57,12540,0.19,0.81,1.0,1.0,1.0,1.0,1.0,0,4
58,12760,0.193333,0.806667,1.0,1.0,1.0,1.0,1.0,0,5
59,12980,0.196667,0.803333,1.0,1.0,1.0,1.0,1.0,0,6
60,13200,0.2,0.8,1.0,1.0,1.0,1.0,1.0,0,7
61,13420,0.203333,0.796667,1.0,1.0,1.0,1.0,1.0,1,0
62,13640,0.206667,0.793333,1.0,1.0,1.0,1.0,1.0,0,1
63,13860,0.21,0.79,1.0,1.0,1.0,1.0,1.0,0,2
64,14080,0.213333,0.786667,1.0,1.0,1.0,1.0,1.0,0,3
65,14300,0.216667,0.783333,1.0,1.0,1.0,1.0,1.0,0,4
66,14520,0.22,0.78,1.0,1.0,1.0,1.0,1.0,0,5
67,14740,0.223333,0.776667,1.0,1.0,1.0,1.0,1.0,0,6
68,14960,0.226667,0.773333,1.0,1.0,1.0,1.0,1.0,0,7
69,15180,0.23,0.77,1.0,1.0,1.0,1.0,1.0,0,8
70,15400,0.233333,0.766667,1.0,1.0,1.0,1.0,1.0,0,9
71,15620,0.236667,0.763333,1.0,1.0,1.0,1.0,1.0,0,10
72,15840,0.24,0.76,1.0,1.0,1.0,1.0,1.0,0,11
73,16060,0.243333,0.756667,1.0,1.0,1.0,1.0,1.0,0,12
74,16280,0.246667,0.753333,1.0,1.0,1.0,1.0,1.0,0,13
75,16500,0.25,0.75,1.0,1.0,1.0,1.0,1.0,0,14
76,16720,0.253333,0.746667,1.0,1.0,1.0,1.0,1.0,0,15
77,16940,0.256667,0.743333,1.0,1.0,1.0,1.0,1.0,0,16
78,17160,0.26,0.74,1.0,1.0,1.0,1.0,1.0,0,17
79,17380,0.263333,0.736667,1.0,1.0,1.0,1.0,1.0,0,18
80,17600,0.266667,0.733333,1.0,1.0,1.0,1.0,1.0,0,19
81,17820,0.27,0.73,1.0,1.0,1.0,1.0,1.0,0,20
82,18040,0.273333,0.726667,1.0,1.0,1.0,1.0,1.0,0,21
83,18260,0.276667,0.723333,1.0,1.0,1.0,1.0,1.0,0,22
84,18480,0.28,0.72,1.0,1.0,1.0,1.0,1.0,0,23
85,18700,0.283333,0.716667,1.0,1.0,1.0,1.0,1.0,0,24
86,18920,0.286667,0.713333,1.0,1.0,1.0,1.0,1.0,0,25
87,19140,0.29,0.71,1.0,1.0,1.0,1.0,1.0,0,26
88,19360,0.293333,0.706667,1.0,1.0,1.0,1.0,1.0,0,27
89,19580,0.296667,0.703333,1.0,1.0,1.0,1.0,1.0,0,28
90,19800,0.3,0.7,1.0,1.0,1.0,1.0,1.0,0,29
91,20020,0.303333,0.696667,1.0,1.0,1.0,1.0,1.0,0,30
92,20240,0.306667,0.693333,1.0,1.0,1.0,1.0,1.0,0,31
93,20460,0.31,0.69,1.0,1.0,1.0,1.0,1.0,0,32
94,20680,0.313333,0.686667,1.0,1.0,1.0,1.0,1.0,0,33
95,20900,0.316667,0.683333,1.0,1.0,1.0,1.0,1.0,0,34
96,21120,0.32,0.68,1.0,1.0,1.0,1.0,1.0,0,35
97,21340,0.323333,0.676667,1.0,1.0,1.0,1.0,1.0,0,36
98,21560,0.326667,0.673333,1.0,1.0,1.0,1.0,1.0,0,37
99,21780,0.33,0.67,1.0,1.0,1.0,1.0,1.0,0,38
100,22000,0.333333,0.666667,1.0,1.0,1.0,1.0,1.0,0,39
101,22220,0.336667,0.663333,1.0,1.0,1.0,1.0,1.0,0,40
102,22440,0.34,0.66,1.0,1.0,1.0,1.0,1.0,0,41
103,22660,0.343333,0.656667,1.0,1.0,1.0,1.0,1.0,0,42
104,22880,0.346667,0.653333,1.0,1.0,1.0,1.0,1.0,0,43
105,23100,0.35,0.65,1.0,1.0,1.0,1.0,1.0,0,44
106,23320,0.353333,0.646667,1.0,1.0,1.0,1.0,1.0,0,45
107,23540,0.356667,0.643333,1.0,1.0,1.0,1.0,1.0,0,46
108,23760,0.36,0.64,1.0,1.0,1.0,1.0,1.0,0,47
109,23980,0.363333,0.636667,1.0,1.0,1.0,1.0,1.0,0,48
110,24200,0.366667,0.633333,1.0,1.0,1.0,1.0,1.0,0,49
111,24420,0.37,0.63,1.0,1.0,1.0,1.0,1.0,0,50
112,24640,0.373333,0.626667,1.0,1.0,1.0,1.0,1.0,0,51
113,24860,0.376667,0.623333,1.0,1.0,1.0,1.0,1.0,0,52
114,25080,0.38,0.62,1.0,1.0,1.0,1.0,1.0,0,53
115,25300,0.383333,0.616667,1.0,1.0,1.0,1.0,1.0,0,54
116,25520,0.386667,0.613333,1.0,1.0,1.0,1.0,1.0,0,55
117,25740,0.39,0.61,1.0,1.0,1.0,1.0,1.0,0,56
118,25960,0.393333,0.606667,1.0,1.0,1.0,1.0,1.0,0,57
119,26180,0.396667,0.603333,1.0,1.0,1.0,1.0,1.0,0,58
120,26400,0.4,0.6,1.0,1.0,1.0,1.0,1.0,0,59
121,26620,0.403333,0.596667,1.0,1.0,1.0,1.0,1.0,0,60
122,26840,0.406667,0.593333,1.0,1.0,1.0,1.0,1.0,0,61
123,27060,0.41,0.59,1.0,1.0,1.0,1.0,1.0,0,62
124,27280,0.413333,0.586667,1.0,1.0,1.0,1.0,1.0,0,63
125,27500,0.416667,0.583333,1.0,1.0,1.0,1.0,1.0,0,64
126,27720,0.42,0.58,1.0,1.0,1.0,1.0,1.0,0,65
127,27940,0.423333,0.576667,1.0,1.0,1.0,1.0,1.0,0,66
128,28160,0.426667,0.573333,1.0,1.0,1.0,1.0,1.0,0,67
129,28380,0.43,0.57,1.0,1.0,1.0,1.0,1.0,0,68
130,28600,0.433333,0.566667,1.0,1.0,1.0,1.0,1.0,0,69
131,28820,0.436667,0.563333,1.0,1.0,1.0,1.0,1.0,0,70
132,29040,0.44,0.56,1.0,1.0,1.0,1.0,1.0,0,71
133,29260,0.443333,0.556667,1.0,1.0,1.0,1.0,1.0,0,72
134,29480,0.446667,0.553333,1.0,1.0,1.0,1.0,1.0,0,73
135,29700,0.45,0.55,1.0,1.0,1.0,1.0,1.0,1,0
136,29920,0.453333,0.546667,1.0,1.0,1.0,1.0,1.0,0,1
137,30140,0.456667,0.543333,1.0,1.0,1.0,1.0,1.0,0,2
138,30360,0.46,0.54,1.0,1.0,1.0,1.0,1.0,0,3
139,30580,0.463333,0.536667,1.0,1.0,1.0,1.0,1.0,0,4
140,30800,0.466667,0.533333,1.0,1.0,1.0,1.0,1.0,0,5
141,31020,0.47,0.53,1.0,1.0,1.0,1.0,1.0,0,6
142,31240,0.473333,0.526667,1.0,1.0,1.0,1.0,1.0,0,7
143,31460,0.476667,0.523333,1.0,1.0,1.0,1.0,1.0,0,8
144,31680,0.48,0.52,1.0,1.0,1.0,1.0,1.0,0,9
145,31900,0.483333,0.516667,1.0,1.0,1.0,1.0,1.0,0,10
146,32120,0.486667,0.513333,1.0,1.0,1.0,1.0,1.0,0,11
147,32340,0.49,0.51,1.0,1.0,1.0,1.0,1.0,0,12
148,32560,0.493333,0.506667,1.0,1.0,1.0,1.0,1.0,0,13
149,32780,0.496667,0.503333,1.0,1.0,1.0,1.0,1.0,0,14
150,33000,0.5,0.5,1.0,1.0,1.0,1.0,1.0,0,15
151,33220,0.503333,0.496667,1.0,1.0,1.0,1.0,1.0,0,16
152,33440,0.506667,0.493333,1.0,1.0,1.0,1.0,1.0,0,17
153,33660,0.51,0.49,1.0,1.0,1.0,1.0,1.0,0,18
154,33880,0.513333,0.486667,1.0,1.0,1.0,1.0,1.0,0,19
155,34100,0.516667,0.483333,1.0,1.0,1.0,1.0,1.0,0,20
156,34320,0.52,0.48,1.0,1.0,1.0,1.0,1.0,0,21
157,34540,0.523333,0.476667,1.0,1.0,1.0,1.0,1.0,0,22
158,34760,0.526667,0.473333,1.0,1.0,1.0,1.0,1.0,0,23
159,34980,0.53,0.47,1.0,1.0,1.0,1.0,1.0,0,24
160,35200,0.533333,0.466667,1.0,1.0,1.0,1.0,1.0,0,25
161,35420,0.536667,0.463333,1.0,1.0,1.0,1.0,1.0,0,26
162,35640,0.54,0.46,1.0,1.0,1.0,1.0,1.0,0,27
163,35860,0.543333,0.456667,1.0,1.0,1.0,1.0,1.0,0,28
164,36080,0.546667,0.453333,1.0,1.0,1.0,1.0,1.0,0,29
165,36300,0.55,0.45,1.0,1.0,1.0,1.0,1.0,0,30
166,36520,0.553333,0.446667,1.0,1.0,1.0,1.0,1.0,0,31
167,36740,0.556667,0.443333,1.0,1.0,1.0,1.0,1.0,0,32
168,36960,0.56,0.44,1.0,1.0,1.0,1.0,1.0,0,33
169,37180,0.563333,0.436667,1.0,1.0,1.0,1.0,1.0,0,34
170,37400,0.566667,0.433333,1.0,1.0,1.0,1.0,1.0,0,35
171,37620,0.57,0.43,1.0,1.0,1.0,1.0,1.0,0,36
172,37840,0.573333,0.426667,1.0,1.0,1.0,1.0,1.0,0,37
173,38060,0.576667,0.423333,1.0,1.0,1.0,1.0,1.0,0,38
174,38280,0.58,0.42,1.0,1.0,1.0,1.0,1.0,0,39
175,38500,0.583333,0.416667,1.0,1.0,1.0,1.0,1.0,0,40
176,38720,0.586667,0.413333,1.0,1.0,1.0,1.0,1.0,0,41
177,38940,0.59,0.41,1.0,1.0,1.0,1.0,1.0,0,42
178,39160,0.593333,0.406667,1.0,1.0,1.0,1.0,1.0,0,43
179,39380,0.596667,0.403333,1.0,1.0,1.0,1.0,1.0,0,44
180,39600,0.6,0.4,1.0,1.0,1.0,1.0,1.0,0,45
181,39820,0.603333,0.396667,1.0,1.0,1.0,1.0,1.0,0,46
182,40040,0.606667,0.393333,1.0,1.0,1.0,1.0,1.0,0,47
183,40260,0.61,0.39,1.0,1.0,1.0,1.0,1.0,0,48
184,40480,0.613333,0.386667,1.0,1.0,1.0,1.0,1.0,0,49
185,40700,0.616667,0.383333,1.0,1.0,1.0,1.0,1.0,0,50
186,40920,0.62,0.38,1.0,1.0,1.0,1.0,1.0,0,51
187,41140,0.623333,0.376667,1.0,1.0,1.0,1.0,1.0,0,52
188,41360,0.626667,0.373333,1.0,1.0,1.0,1.0,1.0,0,53
189,41580,0.63,0.37,1.0,1.0,1.0,1.0,1.0,0,54
190,41800,0.633333,0.366667,1.0,1.0,1.0,1.0,1.0,0,55
191,42020,0.636667,0.363333,1.0,1.0,1.0,1.0,1.0,0,56
192,42240,0.64,0.36,1.0,1.0,1.0,1.0,1.0,0,57
193,42460,0.643333,0.356667,1.0,1.0,1.0,1.0,1.0,0,58
194,42680,0.646667,0.353333,1.0,1.0,1.0,1.0,1.0,0,59
195,42900,0.65,0.35,1.0,1.0,1.0,1.0,1.0,0,60
196,43120,0.653333,0.346667,1.0,1.0,1.0,1.0,1.0,0,61
197,43340,0.656667,0.343333,1.0,1.0,1.0,1.0,1.0,0,62
198,43560,0.66,0.34,1.0,1.0,1.0,1.0,1.0,0,63
199,43780,0.663333,0.336667,1.0,1.0,1.0,1.0,1.0,0,64
200,44000,0.666667,0.333333,1.0,1.0,1.0,1.0,1.0,0,65
201,44220,0.67,0.33,1.0,1.0,1.0,1.0,1.0,0,66
202,44440,0.673333,0.326667,1.0,1.0,1.0,1.0,1.0,0,67
203,44660,0.676667,0.323333,1.0,1.0,1.0,1.0,1.0,0,68
204,44880,0.68,0.32,1.0,1.0,1.0,1.0,1.0,0,69
205,45100,0.683333,0.316667,1.0,1.0,1.0,1.0,1.0,0,70
206,45320,0.686667,0.313333,1.0,1.0,1.0,1.0,1.0,0,71
207,45540,0.69,0.31,1.0,1.0,1.0,1.0,1.0,0,72
208,45760,0.693333,0.306667,1.0,1.0,1.0,1.0,1.0,0,73
209,45980,0.696667,0.303333,1.0,1.0,1.0,1.0,1.0,0,74
210,46200,0.7,0.3,1.0,1.0,1.0,1.0,1.0,0,75
211,46420,0.703333,0.296667,1.0,1.0,1.0,1.0,1.0,0,76
212,46640,0.706667,0.293333,1.0,1.0,1.0,1.0,1.0,0,77
213,46860,0.71,0.29,1.0,1.0,1.0,1.0,1.0,0,78
214,47080,0.713333,0.286667,1.0,1.0,1.0,1.0,1.0,0,79
215,47300,0.716667,0.283333,1.0,1.0,1.0,1.0,1.0,0,80
216,47520,0.72,0.28,1.0,1.0,1.0,1.0,1.0,0,81
217,47740,0.723333,0.276667,1.0,1.0,1.0,1.0,1.0,0,82
218,47960,0.726667,0.273333,1.0,1.0,1.0,1.0,1.0,0,83
219,48180,0.73,0.27,1.0,1.0,1.0,1.0,1.0,0,84
220,48400,0.733333,0.266667,1.0,1.0,1.0,1.0,1.0,0,85
221,48620,0.736667,0.263333,1.0,1.0,1.0,1.0,1.0,0,86
222,48840,0.74,0.26,1.0,1.0,1.0,1.0,1.0,0,87
223,49060,0.743333,0.256667,1.0,1.0,1.0,1.0,1.0,0,88
224,49280,0.746667,0.253333,1.0,1.0,1.0,1.0,1.0,0,89
225,49500,0.75,0.25,1.0,1.0,1.0,1.0,1.0,0,90
226,49720,0.753333,0.246667,1.0,1.0,1.0,1.0,1.0,0,91
227,49940,0.756667,0.243333,1.0,1.0,1.0,1.0,1.0,0,92
228,50160,0.76,0.24,1.0,1.0,1.0,1.0,1.0,0,93
229,50380,0.763333,0.236667,1.0,1.0,1.0,1.0,1.0,0,94
230,50600,0.766667,0.233333,1.0,1.0,1.0,1.0,1.0,0,95
231,50820,0.77,0.23,1.0,1.0,1.0,1.0,1.0,0,96
232,51040,0.773333,0.226667,1.0,1.0,1.0,1.0,1.0,0,97
233,51260,0.776667,0.223333,1.0,1.0,1.0,1.0,1.0,0,98
234,51480,0.78,0.22,1.0,1.0,1.0,1.0,1.0,0,99
235,51700,0.783333,0.216667,1.0,1.0,1.0,1.0,1.0,0,100
236,51920,0.786667,0.213333,1.0,1.0,1.0,1.0,1.0,0,101
237,52140,0.79,0.21,1.0,1.0,1.0,1.0,1.0,0,102
238,52360,0.793333,0.206667,1.0,1.0,1.0,1.0,1.0,0,103
239,52580,0.796667,0.203333,1.0,1.0,1.0,1.0,1.0,0,104
240,52800,0.8,0.2,1.0,1.0,1.0,1.0,1.0,0,105
241,53020,0.803333,0.196667,1.0,1.0,1.0,1.0,1.0,0,106
242,53240,0.806667,0.193333,1.0,1.0,1.0,1.0,1.0,0,107
243,53460,0.81,0.19,1.0,1.0,1.0,1.0,1.0,0,108
244,53680,0.813333,0.186667,1.0,1.0,1.0,1.0,1.0,0,109
245,53900,0.816667,0.183333,1.0,1.0,1.0,1.0,1.0,0,110
246,54120,0.82,0.18,1.0,1.0,1.0,1.0,1.0,0,111
247,54340,0.823333,0.176667,1.0,1.0,1.0,1.0,1.0,0,112
248,54560,0.826667,0.173333,1.0,1.0,1.0,1.0,1.0,0,113
249,54780,0.83,0.17,1.0,1.0,1.0,1.0,1.0,0,114
250,55000,0.833333,0.166667,1.0,1.0,1.0,1.0,1.0,0,115
251,55220,0.836667,0.163333,1.0,1.0,1.0,1.0,1.0,0,116
252,55440,0.84,0.16,1.0,1.0,1.0,1.0,1.0,0,117
253,55660,0.843333,0.156667,1.0,1.0,1.0,1.0,1.0,0,118
254,55880,0.846667,0.153333,1.0,1.0,1.0,1.0,1.0,0,119
255,56100,0.85,0.15,1.0,1.0,1.0,1.0,1.0,0,120
256,56320,0.853333,0.146667,1.0,1.0,1.0,1.0,1.0,0,121
257,56540,0.856667,0.143333,1.0,1.0,1.0,1.0,1.0,0,122
258,56760,0.86,0.14,1.0,1.0,1.0,1.0,1.0,0,123
259,56980,0.863333,0.136667,1.0,1.0,1.0,1.0,1.0,0,124
260,57200,0.866667,0.133333,1.0,1.0,1.0,1.0,1.0,0,125
261,57420,0.87,0.13,1.0,1.0,1.0,1.0,1.0,0,126
262,57640,0.873333,0.126667,1.0,1.0,1.0,1.0,1.0,0,127
263,57860,0.876667,0.123333,1.0,1.0,1.0,1.0,1.0,0,128
264,58080,0.88,0.12,1.0,1.0,1.0,1.0,1.0,0,129
265,58300,0.883333,0.116667,1.0,1.0,1.0,1.0,1.0,0,130
266,58520,0.886667,0.113333,1.0,1.0,1.0,1.0,1.0,0,131
267,58740,0.89,0.11,1.0,1.0,1.0,1.0,1.0,0,132
268,58960,0.893333,0.106667,1.0,1.0,1.0,1.0,1.0,0,133
269,59180,0.896667,0.103333,1.0,1.0,1.0,1.0,1.0,0,134
270,59400,0.9,0.1,1.0,1.0,1.0,1.0,1.0,0,135
271,59620,0.903333,0.096667,1.0,1.0,1.0,1.0,1.0,0,136
272,59840,0.906667,0.093333,1.0,1.0,1.0,1.0,1.0,0,137
273,60060,0.91,0.09,1.0,1.0,1.0,1.0,1.0,0,138
274,60280,0.913333,0.086667,1.0,1.0,1.0,1.0,1.0,0,139
275,60500,0.916667,0.083333,1.0,1.0,1.0,1.0,1.0,0,140
276,60720,0.92,0.08,1.0,1.0,1.0,1.0,1.0,0,141
277,60940,0.923333,0.076667,1.0,1.0,1.0,1.0,1.0,0,142
278,61160,0.926667,0.073333,1.0,1.0,1.0,1.0,1.0,0,143
279,61380,0.93,0.07,1.0,1.0,1.0,1.0,1.0,0,144
280,61600,0.933333,0.066667,1.0,1.0,1.0,1.0,1.0,0,145
281,61820,0.936667,0.063333,1.0,1.0,1.0,1.0,1.0,0,146
282,62040,0.94,0.06,1.0,1.0,1.0,1.0,1.0,0,147
283,62260,0.943333,0.056667,1.0,1.0,1.0,1.0,1.0,0,148
284,62480,0.946667,0.053333,1.0,1.0,1.0,1.0,1.0,0,149
285,62700,0.95,0.05,1.0,1.0,1.0,1.0,1.0,0,150
286,62920,0.953333,0.046667,1.0,1.0,1.0,1.0,1.0,0,151
287,63140,0.956667,0.043333,1.0,1.0,1.0,1.0,1.0,0,152
288,63360,0.96,0.04,1.0,1.0,1.0,1.0,1.0,0,153
289,63580,0.963333,0.036667,1.0,1.0,1.0,1.0,1.0,0,154
290,63800,0.966667,0.033333,1.0,1.0,1.0,1.0,1.0,0,155
291,64020,0.97,0.03,1.0,1.0,1.0,1.0,1.0,0,156
292,64240,0.973333,0.026667,1.0,1.0,1.0,1.0,1.0,0,157
293,64460,0.976667,0.023333,1.0,1.0,1.0,1.0,1.0,0,158
294,64680,0.98,0.02,1.0,1.0,1.0,1.0,1.0,0,159
295,64900,0.983333,0.016667,1.0,1.0,1.0,1.0,1.0,0,160
296,65120,0.986667,0.013333,1.0,1.0,1.0,1.0,1.0,0,161
297,65340,0.99,0.01,1.0,1.0,1.0,1.0,1.0,0,162
298,65560,0.993333,0.006667,1.0,1.0,1.0,1.0,1.0,0,163
299,65780,0.996667,0.003333,1.0,1.0,1.0,1.0,1.0,0,164
300,66000,1.0,0.0,1.0,1.0,1.0,1.0,1.0,0,165
