patient,n_windows,n_omega_hr,ham_K1_S5,ham_K1_S10,ham_K2_S5,ham_K1_S15,ham_K3_S5,ham_K1_S20,ham_K2_S10,ham_K4_S5,ham_K1_S25,ham_K5_S5,ham_K16_S5,ham_K16_S10,ham_K16_S15,ham_K16_S20,ham_K16_S25,proj_K1_S5,proj_K1_S10,proj_K2_S5,proj_K1_S15,proj_K3_S5,proj_K1_S20,proj_K2_S10,proj_K4_S5,proj_K1_S25,proj_K5_S5,proj_K16_S5,proj_K16_S10,proj_K16_S15,proj_K16_S20,proj_K16_S25,ppg_findpeaks,ppg_official,mech_I_S5,mech_C_S5,mech_G_S5,mech_SD_S5,mech_MAD_S5,mech_wRMS_S5,mech_I_S10,mech_C_S10,mech_G_S10,mech_SD_S10,mech_MAD_S10,mech_wRMS_S10,mech_I_S15,mech_C_S15,mech_G_S15,mech_SD_S15,mech_MAD_S15,mech_wRMS_S15,mech_I_S20,mech_C_S20,mech_G_S20,mech_SD_S20,mech_MAD_S20,mech_wRMS_S20,mech_I_S25,mech_C_S25,mech_G_S25,mech_SD_S25,mech_MAD_S25,mech_wRMS_S25
4,15.0,15.0,0.243786,0.259116,0.214595,0.273008,0.205881,0.278928,0.221677,0.204208,0.336614,0.200152,0.168466,0.175346,0.178169,0.18151,0.176972,0.484641,0.90773,0.454969,1.240346,0.280084,1.322893,0.866023,0.276001,1.350257,0.276365,0.266521,0.258962,0.263474,0.267503,0.259166,0.243876,,0.243786,0.168466,0.07532,0.168195,0.110839,0.998424,0.259116,0.175346,0.08377,0.195497,0.126255,1.058577,0.273008,0.178169,0.094839,0.211991,0.138227,1.075979,0.278928,0.18151,0.097418,0.221878,0.138149,1.083534,0.336614,0.176972,0.159643,0.477304,0.145231,1.087716
5,15.0,15.0,3.184772,4.39179,3.037993,4.033275,1.73539,3.779409,4.619791,2.165177,4.489936,1.736634,1.566117,2.725875,2.909722,2.739387,2.93855,6.927168,7.005503,6.456433,7.16329,5.086927,7.146277,6.814795,5.306528,7.233563,5.131779,5.288416,5.139472,4.818171,4.665989,4.706107,2.542117,,0.611318,0.367044,0.244274,0.843187,0.174887,1.026564,0.818582,0.328194,0.490387,1.476591,0.225786,1.089025,1.091158,0.306078,0.785079,2.292155,0.242943,1.1061,1.091842,0.319222,0.77262,2.35754,0.275098,1.111874,1.115073,0.299637,0.815436,2.543515,0.258574,1.114355
6,15.0,15.0,16.789748,16.767925,16.676715,16.766611,16.956662,16.868241,16.645175,16.948461,16.917916,16.970533,16.967534,16.956708,16.934006,16.929218,16.940187,31.785409,31.764779,31.78083,31.74119,31.760043,31.742798,31.757592,31.776482,31.684863,31.76352,31.772551,31.767381,31.770209,31.767637,31.767778,17.000099,,16.789748,16.967534,-0.177786,1.331446,0.158653,1.060284,16.767925,16.956708,-0.188783,1.546716,0.186613,1.113488,16.766611,16.934006,-0.167395,1.645323,0.198655,1.128952,16.868241,16.929218,-0.060976,1.396491,0.197056,1.134513,16.917916,16.940187,-0.02227,1.270322,0.201281,1.137011
17,15.0,15.0,8.261815,8.654064,8.140302,9.387741,8.403376,9.164998,8.213975,7.807481,10.006466,8.123586,8.232149,7.511009,8.209867,8.140454,8.696982,7.301584,9.265561,6.838449,9.350172,3.766263,9.2441,8.904842,3.512104,8.957216,3.245942,2.987372,2.974905,4.33307,3.662702,4.374096,4.262099,,2.608724,2.627469,-0.018745,1.242623,0.332188,1.006611,2.73291,2.591578,0.141332,1.844394,0.334694,1.066067,2.946723,2.684577,0.262146,1.870723,0.354849,1.082756,2.829138,2.682631,0.146508,2.518989,0.389443,1.089088,3.155376,2.67714,0.478236,2.616042,0.432229,1.091716
19,15.0,15.0,5.684029,6.363074,5.62544,6.239621,5.70427,6.270089,5.918388,5.637657,6.332001,5.646547,5.605006,5.720319,5.684324,5.687619,5.693423,3.445999,3.255976,3.616181,3.35671,3.061977,3.309328,2.807136,2.603366,3.113338,2.734489,2.612537,2.414211,2.4251,2.678421,2.302621,5.860543,,4.693283,4.44409,0.249193,0.838925,0.181212,1.073613,5.149678,4.469051,0.680627,2.548802,0.20202,1.131404,5.160474,4.472919,0.687555,2.448857,0.220951,1.145314,5.191435,4.484643,0.706792,2.58916,0.228102,1.149789,5.299149,4.480264,0.818885,3.181751,0.232736,1.151619
32,31.0,31.0,4.116813,4.057418,4.025227,3.987084,3.805876,4.433486,3.90214,3.592741,4.097065,4.029874,3.735865,3.386389,3.57646,3.742232,3.581575,5.17169,6.30949,5.043238,6.769103,4.953049,6.801446,5.90049,4.995549,6.645978,4.931866,4.684515,6.024972,6.25114,5.917147,5.727472,3.322194,,2.049206,1.911911,0.137295,1.033208,0.58078,1.000953,2.096035,1.806496,0.289539,1.221368,0.529399,1.051665,2.16029,1.779781,0.38051,1.518233,0.682557,1.06663,2.417878,1.911775,0.506102,1.778637,0.54637,1.072435,2.228432,1.743014,0.485418,1.987566,0.719424,1.075312
33,16.0,16.0,0.214791,0.297232,0.169279,0.321424,0.143156,0.329272,0.245407,0.137062,0.386028,0.135682,0.101002,0.113602,0.100105,0.107114,0.111268,1.787947,2.756116,1.748757,2.888969,0.296564,2.977015,2.694063,0.281204,2.842174,0.295656,0.245867,0.270289,0.239541,0.235365,0.246016,0.670398,,0.212513,0.100437,0.112076,0.240494,0.130098,1.006739,0.293438,0.11388,0.179558,0.505389,0.141689,1.064635,0.327602,0.099731,0.227871,0.601594,0.151097,1.081246,0.334983,0.106776,0.228207,0.60668,0.163379,1.088067,0.396255,0.111208,0.285047,0.806586,0.169382,1.0917
51,15.0,15.0,0.235267,0.257992,0.198936,0.349719,0.192001,0.353838,0.212859,0.173669,0.380532,0.176251,0.145327,0.163356,0.161934,0.161705,0.170593,0.5807,0.689818,0.546475,0.791135,0.210305,0.814942,0.645926,0.197827,0.833992,0.205472,0.168177,0.167387,0.172607,0.172435,0.175837,1.977547,,0.235267,0.145327,0.08994,0.223197,0.130403,1.047712,0.257992,0.163356,0.094637,0.253327,0.148799,1.112633,0.349719,0.161934,0.187785,0.571173,0.15918,1.132548,0.353838,0.161705,0.192132,0.546417,0.167639,1.141498,0.380532,0.170593,0.209939,0.629475,0.163101,1.145985
52,15.0,15.0,3.960943,3.318825,3.801466,3.493023,3.700997,3.497729,3.102445,2.968178,3.762521,3.176329,2.441559,2.554346,2.475261,2.352254,3.24353,2.012556,2.353193,1.986506,3.200708,1.290781,3.319494,2.191963,1.281809,3.610918,1.457468,0.901033,1.160383,1.01296,1.570125,1.568476,6.876084,,2.536129,2.463732,0.072397,0.188352,0.114342,1.002995,2.552999,2.465385,0.087614,0.2153,0.114301,1.064761,2.557336,2.45966,0.097676,0.223914,0.128708,1.082791,2.556899,2.449728,0.107171,0.228006,0.126362,1.089616,2.561005,2.449995,0.11101,0.234967,0.134707,1.093036
53,15.0,15.0,1.631689,1.703984,1.607786,1.793525,1.424839,1.846094,1.670465,1.429253,1.739504,1.370762,1.344576,1.395068,1.368307,1.374982,1.374159,0.835574,0.769614,0.810905,0.800804,0.699771,0.806098,0.734761,0.69058,0.834175,0.700919,0.675139,0.669289,0.67409,0.680343,0.679106,2.157149,,1.631689,1.344576,0.287113,0.927487,0.140205,1.020109,1.703984,1.395068,0.308916,0.839186,0.227608,1.088903,1.793525,1.368307,0.425218,1.105183,0.205987,1.109176,1.846094,1.374982,0.471112,1.424784,0.212587,1.116807,1.739504,1.374159,0.365345,1.171015,0.223651,1.120531
60,15.0,15.0,4.629842,4.142093,4.332321,4.289142,3.981171,4.024045,3.811946,3.836512,4.122155,3.621979,3.094261,3.138006,3.683585,3.179989,3.54932,4.465382,2.259703,4.535528,3.396027,3.877674,4.172791,2.220945,4.356101,4.400014,4.513834,4.505282,0.911094,0.80636,3.703131,3.772113,10.922759,,0.520113,0.225192,0.294921,1.097205,0.171111,1.067777,0.573005,0.239704,0.3333,1.178058,0.191513,1.121877,0.625529,0.242227,0.383302,1.322275,0.202472,1.136256,0.539403,0.246991,0.292412,0.928177,0.215898,1.142054,0.631953,0.254392,0.377561,1.228891,0.221544,1.144843
61,16.0,16.0,2.515667,2.31641,2.363461,2.601217,1.729465,2.596634,2.214139,1.986647,2.273599,1.858001,1.954545,2.082614,2.120399,2.251,1.937972,3.297449,4.017273,3.291325,4.289522,0.856288,3.878547,3.438945,1.749207,3.931749,0.843187,1.731948,1.612178,2.429715,1.622605,1.576893,3.679288,,1.224178,1.19151,0.032668,0.144627,0.097855,0.954631,1.237402,1.190643,0.046759,0.169129,0.123265,1.031218,1.242393,1.192238,0.050155,0.179922,0.123955,1.055034,1.267096,1.194468,0.072628,0.271477,0.121389,1.065873,1.267934,1.194302,0.073631,0.264849,0.124863,1.071737
62,15.0,15.0,6.862552,6.869717,6.848964,6.873038,6.846297,6.873668,6.853045,6.84184,6.900076,6.843302,6.82694,6.823857,6.823866,6.833608,6.834256,2.554628,2.560559,2.526681,2.559564,2.514844,2.576685,2.532369,2.521411,2.560445,2.498692,2.473624,2.483255,2.475945,2.478555,2.481163,15.69063,,6.862552,6.82694,0.035612,0.164933,0.099402,1.027642,6.869717,6.823857,0.045859,0.192133,0.114319,1.084975,6.873038,6.823866,0.049172,0.19842,0.122102,1.104286,6.873668,6.833608,0.040059,0.345143,0.128588,1.112441,6.900076,6.834256,0.065821,0.454275,0.130681,1.116456
66,15.0,15.0,2.378772,3.247543,2.214044,2.856869,2.086399,3.550201,3.11344,2.045148,3.82471,1.768531,1.886666,2.360364,2.624379,2.699656,2.639959,4.007567,4.330796,3.356571,4.53731,1.931434,4.421505,3.988989,1.546216,4.292853,1.29256,0.467194,0.894007,0.801568,1.372299,1.473072,10.520725,,0.331245,0.12665,0.204595,0.541412,0.134203,0.992853,0.430378,0.125982,0.304396,0.850784,0.145889,1.060335,0.565052,0.138782,0.42627,0.962532,0.173094,1.078421,0.632975,0.129157,0.503818,1.071043,0.17289,1.085934,0.556865,0.132647,0.424218,0.803927,0.162645,1.089696
76,15.0,15.0,49.022863,48.990472,49.022863,49.008088,49.018953,48.976228,48.990472,49.004425,48.832624,49.015018,49.008957,48.994836,48.997706,48.987289,48.962756,44.234633,44.391574,44.234633,44.363383,44.366684,44.34942,44.178774,44.341302,44.222136,44.365352,44.353461,44.388246,44.321016,44.35611,44.323284,49.280558,,49.022863,49.008957,0.013906,0.331704,0.180193,1.020966,48.990472,48.994836,-0.004364,0.479956,0.195991,1.0805,49.008088,48.997706,0.010383,0.564492,0.194318,1.097986,48.976228,48.987289,-0.011061,0.517137,0.19774,1.104803,48.832624,48.962756,-0.130132,0.877817,0.255779,1.108078
79,15.0,15.0,1.770374,1.274319,1.166324,1.377149,0.897827,1.180041,1.099879,0.863395,1.313114,0.635234,0.732344,0.352025,0.229096,0.523392,0.502078,2.094492,2.175488,1.840996,2.327234,1.472632,2.529523,2.098821,1.539144,2.7306,1.108932,1.666678,0.758987,0.750907,0.846148,1.015924,6.614847,,0.272214,0.213324,0.05889,0.24809,0.128375,1.014675,0.465657,0.21093,0.254726,0.943721,0.145186,1.081115,0.502561,0.209745,0.292816,1.067971,0.154331,1.101168,0.557875,0.211666,0.346209,1.184515,0.171425,1.109449,0.501606,0.206488,0.295118,1.02308,0.175078,1.113674
92,15.0,15.0,2.605046,3.88853,2.541216,4.737715,2.101688,4.904817,3.568196,2.029031,5.196044,1.754623,1.61824,2.656568,3.176189,3.10403,3.158879,13.573013,14.285168,12.329284,13.972794,12.189254,14.02475,12.402587,11.195498,14.218565,12.106639,11.232779,10.88538,11.365728,11.296495,12.239468,6.246598,,1.321953,0.302488,1.019465,2.080387,0.329197,0.974831,1.956377,0.380321,1.576056,3.416758,0.389917,1.032894,2.765797,0.799414,1.966383,4.418688,0.760597,1.049909,3.189569,1.049007,2.140562,4.816663,0.941005,1.056146,3.431696,1.131851,2.299845,4.96582,0.97449,1.058813
95,15.0,15.0,2.572865,2.591502,2.064427,2.634515,2.102071,2.657268,2.240964,2.233472,2.932228,2.350464,1.970082,2.126875,2.259934,2.154464,2.152243,8.401894,8.53133,8.426575,8.719189,5.854631,9.111266,8.618831,5.921192,9.206568,5.515362,4.49645,3.653707,2.651869,3.119348,3.175903,2.238031,,0.353522,0.154827,0.198695,0.520499,0.160096,0.950584,0.610069,0.149547,0.460522,1.115893,0.20004,1.010145,0.817965,0.135733,0.682232,1.672464,0.219364,1.027304,1.040547,0.145498,0.895049,2.252838,0.240551,1.034933,0.946855,0.139792,0.807063,1.924274,0.238641,1.039069
97,15.0,15.0,2.173932,2.270717,2.147047,2.291911,2.089209,2.391373,2.236325,2.097768,2.334154,2.077971,2.0716,2.09414,2.096286,2.08375,2.089116,1.622301,1.747349,1.566708,2.195198,0.817038,2.313914,1.696203,0.786409,2.240337,0.791763,0.750975,0.788866,0.787415,0.834663,0.803395,6.267172,,2.173932,2.0716,0.102332,0.339518,0.145629,1.004932,2.270717,2.09414,0.176577,0.511257,0.199355,1.06885,2.291911,2.096286,0.195625,0.492792,0.20063,1.087721,2.391373,2.08375,0.307623,0.705805,0.227402,1.095344,2.334154,2.089116,0.245038,0.614608,0.203859,1.099219
99,16.0,16.0,17.268103,16.587317,16.889376,16.791212,17.238659,16.344504,16.595667,17.339626,16.463468,17.232731,17.337075,16.206147,16.697548,16.34923,16.381672,18.951546,20.021994,18.930798,19.41479,18.386288,19.58841,20.102639,18.841632,19.617685,18.460156,18.57363,20.748449,20.242218,20.26227,20.266474,15.230104,,15.467695,15.364438,0.103257,1.128012,0.16022,1.053574,15.383501,15.373815,0.009687,0.391917,0.181824,1.107933,15.353345,15.368062,-0.014717,0.678132,0.192028,1.12487,15.358439,15.363353,-0.004913,0.491043,0.198111,1.131654,15.429494,15.367289,0.062205,0.919694,0.196579,1.135003
102,16.0,16.0,0.58812,0.795449,0.510182,0.931192,0.205123,0.941573,0.710352,0.16754,0.834441,0.168597,0.153871,0.141911,0.145408,0.159168,0.156848,0.298318,0.446046,0.223734,0.593166,0.192768,0.687991,0.354368,0.149906,0.728667,0.151021,0.137802,0.146016,0.153527,0.15876,0.161073,0.089935,,0.613222,0.158884,0.454338,1.570838,0.202157,1.081724,0.713856,0.151369,0.562486,1.940421,0.230462,1.135184,0.801893,0.151595,0.650298,2.114504,0.238935,1.148408,0.844317,0.167985,0.676331,2.183155,0.255975,1.153089,0.724765,0.16704,0.557725,1.738651,0.258301,1.15518
106,15.0,15.0,8.671298,7.5422,8.774923,7.055594,7.896299,7.707868,7.014171,8.089512,8.049758,8.095529,7.924717,6.88469,6.189951,6.837135,7.268802,7.759355,10.055999,7.449434,9.370695,4.748128,8.868397,9.957511,4.340515,9.052923,3.254504,2.639288,2.947457,3.460455,2.783339,3.834861,7.75014,,2.982885,2.968961,0.013924,1.397795,0.936067,0.941419,3.567106,2.911897,0.655209,3.283969,0.642756,1.004928,3.617268,2.988697,0.628571,3.124572,0.663877,1.019177,4.150927,3.046179,1.104748,3.340191,0.751235,1.025727,4.045956,3.037979,1.007977,3.007831,0.705628,1.030183
109,15.0,15.0,2.241161,2.493733,2.17199,3.110629,1.802125,2.71657,2.36609,1.845253,2.409382,1.719267,1.666513,2.016778,2.25532,1.97563,1.967743,2.08667,2.112661,1.778373,2.385466,1.856982,2.942549,1.711619,1.847974,2.885244,1.773155,0.920046,0.701965,1.283705,1.028092,1.089721,15.673959,,0.740228,0.266018,0.474211,1.188442,0.164781,1.06892,0.858241,0.274431,0.58381,1.632495,0.210284,1.134326,0.894737,0.28684,0.607897,1.694514,0.23178,1.145359,0.708533,0.282532,0.426001,1.090965,0.23331,1.148228,0.797214,0.287233,0.509982,1.284752,0.238477,1.149151
110,15.0,15.0,8.958037,7.960584,7.989035,8.510509,7.216415,8.415552,7.702701,7.35144,8.195199,6.531692,6.193297,6.458479,6.413061,6.718523,6.693715,9.209935,7.506113,8.365999,8.266248,8.217594,8.294552,7.280602,6.989369,8.698397,8.184616,6.979693,3.461311,3.528291,4.365353,5.005596,15.677474,,2.464007,0.790697,1.67331,3.227822,1.275963,1.022652,2.210585,1.010904,1.19968,2.399117,0.788606,1.095719,2.132487,0.817032,1.315455,2.254556,0.829887,1.112749,2.185666,0.802076,1.38359,2.346739,0.915333,1.11853,1.897528,0.754977,1.142551,2.004595,0.500167,1.121127
111,15.0,15.0,0.202778,0.239751,0.161133,0.25124,0.158604,0.24938,0.191403,0.141931,0.248848,0.131426,0.126588,0.142166,0.1415,0.142109,0.141414,9.553796,9.886115,9.34915,10.126551,9.44528,10.026705,9.67481,9.435041,9.928164,9.437642,9.439106,9.434391,9.431894,9.432144,9.433296,0.508918,,0.202778,0.126588,0.07619,0.190635,0.137417,1.006969,0.239751,0.142166,0.097585,0.264702,0.150134,1.067795,0.25124,0.1415,0.10974,0.284595,0.16602,1.085439,0.24938,0.142109,0.107272,0.280873,0.172651,1.09278,0.248848,0.141414,0.107435,0.28234,0.168876,1.096411
112,15.0,15.0,7.244685,7.139718,7.148868,7.453677,6.791188,7.06705,6.600603,6.398502,7.346141,6.113794,5.656751,6.317275,6.244204,6.00669,6.284105,10.020624,9.754816,8.481012,9.344336,6.593265,9.170312,8.527749,5.504671,9.052098,4.525068,4.791574,5.330298,4.578151,4.584013,4.851901,8.034875,,5.203647,4.534577,0.66907,2.015901,0.413233,0.969664,5.468541,4.890949,0.577592,2.143125,0.554161,1.029759,5.465148,5.098152,0.366996,1.80057,0.605278,1.044498,5.53575,5.179054,0.356696,1.912274,0.674757,1.049537,5.666258,5.180328,0.485931,2.071636,0.772507,1.051743
115,15.0,15.0,4.626675,5.469034,3.992065,4.710436,3.265122,4.790425,5.260158,3.299607,4.875892,3.146961,2.71909,3.628454,2.943435,2.66295,2.774006,7.308049,6.319336,6.189442,6.332261,4.632946,6.633505,5.766521,4.614928,6.827606,4.440786,2.961723,2.176678,2.037027,2.524828,2.306748,7.964264,,4.065897,2.905118,1.16078,2.720846,0.764524,0.957697,4.881894,3.709903,1.171991,3.373302,1.425596,1.012639,4.413736,2.844957,1.568779,3.069479,1.343881,1.031434,4.175232,2.643512,1.531719,2.811615,0.761297,1.03815,4.167899,2.646627,1.521271,2.873872,0.751135,1.041059
118,15.0,15.0,24.046564,25.370541,23.617616,24.982945,23.86611,25.153157,24.83713,23.186771,23.890374,23.254088,23.286274,24.273173,24.102025,24.941353,23.097001,47.036039,40.336874,47.584701,38.912214,46.94003,37.523469,40.095352,48.035259,36.66764,47.73092,47.022968,39.524136,38.058113,36.21876,35.270027,30.671092,,18.49913,18.031497,0.467633,1.501728,0.172192,0.951883,18.513043,18.021351,0.491692,1.891573,0.18594,1.023243,18.568396,18.032387,0.536009,1.92937,0.190668,1.042128,18.622037,18.01737,0.604667,2.111612,0.202912,1.050833,18.685027,18.00873,0.676297,2.060536,0.19377,1.054888
119,15.0,15.0,3.908102,4.188501,3.599678,4.440604,3.632107,4.331217,3.918382,3.57552,4.137556,3.537365,3.522567,3.789996,3.263813,3.400553,3.171715,4.805644,6.067516,4.719574,5.500361,3.819518,5.561389,5.380715,3.163122,5.532224,2.369606,1.484537,3.812567,2.961668,2.840679,3.305502,5.734747,,0.798016,0.748007,0.050009,0.218685,0.133663,1.013628,0.846906,0.743674,0.103232,0.369877,0.161499,1.073636,0.879651,0.738767,0.140885,0.462341,0.183244,1.091261,0.887797,0.737561,0.150236,0.480229,0.191254,1.099441,0.887825,0.731593,0.156232,0.486333,0.186718,1.104112
121,16.0,16.0,2.433576,2.425957,2.354045,2.461673,2.185356,2.495466,2.34304,2.207326,2.441704,2.186712,2.229729,2.175558,2.168826,2.191457,2.155453,5.9625,6.969449,5.307503,7.303445,3.9298,7.350275,6.070563,3.570515,7.218271,3.349764,3.155132,3.153988,3.151797,3.127786,3.03191,3.140589,,2.433576,2.229729,0.203847,0.879335,0.253739,1.001227,2.425957,2.175558,0.250399,0.987319,0.32549,1.055593,2.461673,2.168826,0.292846,1.134382,0.334031,1.070799,2.495466,2.191457,0.304009,1.490108,0.330825,1.076188,2.441704,2.155453,0.286251,1.267466,0.365808,1.078124
125,15.0,15.0,4.865323,5.514072,4.62078,4.791915,4.335892,5.047236,5.370537,4.097217,5.110285,3.968979,3.808272,4.665209,4.297569,4.400659,4.292753,5.784005,3.191393,5.457169,2.885301,5.435199,2.789207,2.986416,5.039855,2.646584,5.095306,4.951834,0.882515,1.303853,1.732035,1.742266,5.693295,,0.548077,0.122438,0.425639,1.514425,0.148817,1.062332,0.639863,0.127206,0.512658,1.534475,0.185761,1.118015,0.638344,0.130874,0.50747,1.697671,0.194499,1.133713,0.985131,0.128693,0.856438,2.752963,0.197144,1.138334,1.101477,0.136163,0.965314,2.663862,0.21332,1.140255
128,30.0,30.0,8.166093,8.095466,8.128968,8.263619,8.18515,8.395821,8.058297,8.136786,8.294323,8.240314,8.318892,8.317798,8.34439,8.41521,8.473799,4.461231,5.188621,4.425302,5.170284,4.111877,5.014783,5.068846,3.8021,5.254175,3.673345,2.524622,2.516512,2.595789,2.793305,2.780343,7.782856,,7.84319,7.989636,-0.146446,1.284616,0.420185,0.984051,7.819144,7.977742,-0.158598,1.367856,0.446036,1.054719,7.807601,8.031581,-0.223981,1.254433,0.501893,1.076016,7.95688,8.030382,-0.073503,1.382767,0.553435,1.085104,7.838003,7.998926,-0.160923,1.29686,0.352481,1.090283
134,16.0,16.0,15.627475,16.686265,15.41678,15.008818,15.686368,15.19828,16.585348,15.282088,14.765749,14.94006,15.377667,16.483687,15.131548,15.547268,14.492469,10.923985,10.543892,10.861647,9.764679,10.235214,9.991105,9.537028,10.072793,10.742905,9.244339,7.831603,8.287998,7.136579,6.256633,6.609834,15.60758,,9.691543,9.650399,0.041144,0.192727,0.117773,1.009532,9.703816,9.649153,0.054663,0.222468,0.142974,1.065974,9.714686,9.65653,0.058156,0.241702,0.158259,1.085408,9.718993,9.654815,0.064178,0.251621,0.162908,1.093814,9.718088,9.651527,0.06656,0.25318,0.151524,1.098204
140,15.0,15.0,5.815822,5.130873,5.481377,5.473009,4.447641,5.694187,5.050581,4.904403,5.602817,4.62591,4.976385,4.270635,4.392719,4.372083,4.405121,16.976431,15.934,15.425696,15.061965,15.230019,15.245601,13.958213,15.19406,15.038798,15.298681,15.570239,13.911882,12.82115,13.719101,13.702534,4.259775,,0.633296,0.226111,0.407186,1.120865,0.188702,1.025131,0.895646,0.210299,0.685347,1.710466,0.21301,1.068562,0.974152,0.208521,0.765631,1.957938,0.214788,1.078108,1.134868,0.21995,0.914918,2.170359,0.222769,1.079909,1.412722,0.217307,1.195415,3.213467,0.229852,1.079916
142,15.0,15.0,0.784523,0.810286,0.754391,0.953199,0.762368,1.0021,0.774785,0.744086,0.997566,0.738416,0.742505,0.722744,0.724466,0.722178,0.726221,3.708,3.578879,3.682577,3.707963,3.749443,3.769022,3.541992,3.735543,3.815447,3.734533,3.739158,3.740047,3.741715,3.740973,3.742367,0.785155,,0.784523,0.742505,0.042018,0.196076,0.127083,0.996126,0.810286,0.722744,0.087542,0.286952,0.15521,1.056099,0.953199,0.724466,0.228733,0.748224,0.158562,1.076038,1.0021,0.722178,0.279922,0.872499,0.172442,1.085108,0.997566,0.726221,0.271344,0.826706,0.179438,1.090036
158,15.0,15.0,5.935705,5.841476,5.851303,5.582244,5.896419,6.023958,5.717624,5.750809,5.679454,5.714881,5.812462,5.625512,5.540917,5.914627,5.601316,3.346716,4.522758,3.397685,4.606926,2.60223,4.47753,4.391244,2.254221,4.534898,3.422849,3.055888,3.396045,3.388356,3.334994,3.366789,4.827034,,3.167145,3.08782,0.079325,0.201943,0.132839,0.9886,3.208862,3.088806,0.120056,0.330486,0.148587,1.059454,3.210906,3.07783,0.133076,0.423659,0.160616,1.079639,3.243382,3.073299,0.170083,0.618885,0.160373,1.088363,3.245924,3.072752,0.173172,0.621246,0.157874,1.093039
173,15.0,15.0,12.025069,12.462497,11.780226,12.981835,11.533385,13.765864,12.277922,11.078469,13.791946,11.20799,10.79662,11.383862,12.0844,12.885149,12.549194,13.954931,14.239936,13.522332,14.809474,12.773931,15.201876,13.801875,12.400544,15.32574,12.468607,11.269655,12.552748,12.429606,12.924787,12.989243,12.193926,,10.325845,9.195663,1.130182,4.107402,2.404262,0.916177,10.980847,10.128066,0.852781,4.54973,2.905544,0.972428,11.525633,10.667635,0.857998,5.101372,3.154419,0.981159,11.958955,11.183778,0.775177,5.439522,3.639107,0.982719,11.850752,11.012005,0.838748,5.293945,3.703466,0.983106
182,15.0,15.0,14.359213,14.474518,14.316777,14.502838,14.268748,14.550266,14.41799,14.265277,14.540708,14.239304,14.213954,14.21637,14.301421,14.295802,14.308083,17.391699,17.751471,17.329928,17.942301,17.408949,17.944957,17.697117,17.423235,18.028294,17.421788,17.38426,17.409875,17.403088,17.406458,17.451623,32.120209,,15.310973,15.223626,0.087347,0.239701,0.145076,1.012895,15.325327,15.228594,0.096733,0.274741,0.168546,1.077296,15.351497,15.233981,0.117515,0.325398,0.184435,1.095656,15.360954,15.233883,0.127071,0.344001,0.193667,1.10281,15.36521,15.236195,0.129014,0.345925,0.201495,1.10638
184,15.0,15.0,4.878597,4.459115,4.800519,4.331186,4.159922,4.169794,3.982798,4.108706,4.40049,4.131386,4.056522,3.340282,3.40112,3.32708,3.869457,2.419648,2.343809,2.067585,2.514689,2.311621,2.613187,2.096711,2.223119,2.921586,2.01117,1.332627,1.296558,0.955766,1.012458,1.181394,4.201948,,3.171373,2.857519,0.313854,1.187855,0.135713,1.08266,3.155461,2.849698,0.305763,1.051745,0.155585,1.13809,3.04434,2.848171,0.19617,0.58557,0.180524,1.150565,3.36308,2.858796,0.504284,1.775571,0.166712,1.154888,3.422377,2.858431,0.563945,1.94457,0.179733,1.156731
194,30.0,30.0,1.524259,1.570542,1.495518,1.600151,1.484338,1.657375,1.53072,1.48163,1.669474,1.482403,1.471784,1.463087,1.463882,1.46293,1.465461,0.242193,0.270025,0.202788,0.297675,0.18173,0.308832,0.222109,0.175911,0.320074,0.175138,0.164705,0.164209,0.16554,0.164713,0.158396,1.445923,,1.524259,1.471784,0.052475,0.21503,0.130796,1.011739,1.570542,1.463087,0.107455,0.363359,0.150629,1.079448,1.600151,1.463882,0.136268,0.458018,0.155505,1.101562,1.657375,1.46293,0.194445,0.583085,0.169398,1.111236,1.669474,1.465461,0.204012,0.661685,0.171792,1.116328
195,15.0,15.0,0.250992,0.304717,0.223685,0.301669,0.214657,0.544181,0.275546,0.205861,0.570337,0.198716,0.190449,0.186285,0.180419,0.188282,0.191163,0.252392,0.738414,0.221297,0.78416,0.196686,0.821402,0.695114,0.200166,0.828272,0.183132,0.175763,0.170247,0.168478,0.171743,0.178537,0.717819,,0.250992,0.190449,0.060543,0.202526,0.131971,1.021015,0.304717,0.186285,0.118431,0.372315,0.148127,1.082305,0.301669,0.180419,0.12125,0.338306,0.155833,1.101493,0.544181,0.188282,0.3559,1.279506,0.172034,1.109657,0.570337,0.191163,0.379174,1.373804,0.173963,1.113974
206,15.0,15.0,2.091614,1.99011,1.989163,1.891976,1.91243,1.919886,1.895529,1.895312,1.983554,2.030936,1.966848,1.890546,1.715685,1.866677,1.881754,1.641779,1.622307,1.58712,1.750709,1.47423,1.817823,1.554114,1.521175,1.821711,1.405598,1.252053,0.961178,1.301228,1.183327,1.2468,3.704136,,2.091614,1.966848,0.124767,1.618755,0.558817,1.018744,1.99011,1.890546,0.099564,1.548764,0.676709,1.067758,1.891976,1.715685,0.176291,1.42865,0.616385,1.082698,1.919886,1.866677,0.053209,1.385282,0.649159,1.090737,1.983554,1.881754,0.1018,1.364891,0.726087,1.095098
215,15.0,15.0,4.550891,5.362309,4.31044,4.619924,4.002216,4.738746,5.492142,4.210224,5.118861,4.131615,3.856732,4.902162,4.165339,4.065521,4.087258,4.27705,4.967314,3.375981,4.462251,3.818375,4.741813,3.570094,2.994317,4.853817,3.341866,2.552266,1.4835,1.189729,1.24804,1.393661,16.732576,,1.963873,1.948413,0.01546,1.006781,0.73832,0.994222,1.809692,1.832262,-0.02257,1.16529,0.605717,1.049349,2.004621,1.955134,0.049488,1.610328,0.646782,1.066988,1.969757,1.545561,0.424196,1.507312,0.566285,1.072895,2.042777,1.610016,0.43276,1.571518,0.596249,1.075115
217,16.0,16.0,5.813611,4.690822,5.515683,4.745843,4.727568,4.583929,4.687078,4.49027,4.986409,4.69939,4.735416,3.8964,3.962945,3.819834,4.16492,5.459745,6.737814,5.47132,6.861606,3.970737,7.098788,5.993896,3.94767,7.204525,3.065468,2.684667,2.965895,2.507519,2.68448,2.584529,10.250098,,1.133272,0.146775,0.986497,2.13555,0.142896,0.97891,1.408167,0.322283,1.085884,2.250855,0.361082,1.036928,1.451002,0.315443,1.13556,2.249226,0.348825,1.05297,1.557218,0.498573,1.058645,2.335233,0.536373,1.059546,1.68105,0.553102,1.127948,2.409756,0.574709,1.06296
221,15.0,15.0,1.228754,1.124774,1.18288,1.149291,1.253815,1.212874,1.069574,1.189959,1.26701,1.243724,1.198245,1.197629,1.156894,1.186962,1.181211,2.745905,2.722672,2.687655,2.939947,2.031284,2.975742,2.657157,1.566239,3.102394,0.742975,0.702883,0.683648,0.69489,0.901337,0.916238,5.231796,,0.222332,0.098535,0.123797,0.268483,0.153488,1.006989,0.311801,0.109574,0.202227,0.513945,0.182008,1.081153,0.339871,0.09804,0.241831,0.590171,0.200316,1.098447,0.359983,0.107834,0.252149,0.638114,0.210002,1.104653,0.412016,0.11159,0.300426,0.738741,0.218056,1.107479
235,15.0,15.0,10.860289,9.936932,10.882212,10.848826,10.961319,9.881882,9.727978,10.966794,9.635472,10.747858,10.675267,9.785629,10.135336,9.630864,9.216449,43.436295,40.859283,43.265308,39.736308,43.197848,39.182175,39.566014,43.597016,39.797364,44.050923,42.740347,39.933306,38.536904,39.019094,39.092967,9.113408,,1.842249,1.783121,0.059128,0.234123,0.15045,0.985393,1.996698,1.796642,0.200056,0.707937,0.183516,1.058336,1.921052,1.805434,0.115619,0.602101,0.175836,1.075423,1.873618,1.802004,0.071614,0.841138,0.195639,1.082292,1.880611,1.808393,0.072219,0.848308,0.205915,1.085183
240,15.0,15.0,8.770203,9.323666,8.41785,8.790877,7.055307,8.483196,8.873938,6.980027,8.283689,7.173757,7.203698,7.414707,7.99516,8.520879,8.009225,13.869587,11.918513,12.801017,11.342128,12.693503,11.325397,10.846227,12.588392,10.989719,12.759439,9.673162,7.760713,6.023859,6.336859,5.617016,8.319106,,0.469727,0.296309,0.173417,0.668284,0.180514,1.054668,0.424488,0.274726,0.149762,0.515584,0.208931,1.112088,0.741176,0.284102,0.457073,1.665873,0.219143,1.122715,0.641501,0.255025,0.386475,1.228692,0.238545,1.123418,0.623153,0.257386,0.365767,1.131056,0.250277,1.122634
244,15.0,15.0,0.755725,0.904653,0.703621,0.87509,0.37315,0.944804,0.852126,0.351205,1.043992,0.346648,0.294772,0.329892,0.338123,0.33483,0.331966,0.293933,0.412023,0.238711,0.627956,0.248672,0.904443,0.3484,0.229309,0.478985,0.228113,0.189638,0.213147,0.198323,0.2093,0.209871,0.300133,,0.755725,0.294772,0.460953,1.397086,0.204721,1.055724,0.904653,0.329892,0.574761,1.990628,0.229544,1.117595,0.87509,0.338123,0.536967,1.771045,0.233746,1.133567,0.944804,0.33483,0.609975,1.973464,0.233633,1.13903,1.043992,0.331966,0.712026,2.216546,0.245713,1.141235
245,15.0,15.0,1.532252,2.805014,1.057754,2.226713,1.112123,3.005847,2.473268,0.702198,2.994748,0.816799,0.852205,1.392693,1.469496,1.527911,1.549695,3.838198,3.610439,3.614632,3.906847,1.893759,3.772589,3.234998,1.88972,3.948649,1.838253,1.644824,0.773669,0.464507,0.533355,0.530746,6.371684,,0.38654,0.297629,0.088911,0.288322,0.153942,1.020621,0.411382,0.303654,0.107727,0.33814,0.183871,1.084803,0.496659,0.307803,0.188856,0.646858,0.19957,1.104512,0.567545,0.301818,0.265727,0.92363,0.201174,1.1122,0.630608,0.31081,0.319798,1.161473,0.213195,1.115986
247,15.0,15.0,10.741552,9.766013,9.42817,9.388505,8.722928,8.547488,8.965273,7.966313,9.16836,7.593551,7.467596,7.330235,6.245301,5.696442,6.161289,17.142914,13.268061,16.630992,12.479984,15.462844,12.658837,12.950886,14.948425,13.167445,15.538381,12.61906,8.442595,7.602861,7.316987,8.222388,19.788721,,0.834307,0.712185,0.122122,0.587259,0.170993,1.073724,0.893048,0.744981,0.148067,0.70483,0.201132,1.121939,1.063259,0.755666,0.307593,1.340662,0.204982,1.134142,0.88054,0.762038,0.118503,0.603831,0.200088,1.137655,1.028884,0.755911,0.272974,1.146742,0.217657,1.138885
250,16.0,16.0,5.951957,6.147301,5.730916,5.887033,5.389382,6.140262,6.079109,5.636695,6.882026,5.453364,5.26764,5.82534,5.832597,6.246901,6.721908,7.008164,9.284545,6.472712,9.031634,5.056907,9.079186,8.454152,4.147032,9.242948,3.747805,3.862104,4.973532,4.533341,4.647489,5.118673,4.037833,,0.639433,0.358039,0.281394,0.829078,0.245591,1.028411,0.638245,0.4127,0.225545,0.871897,0.251306,1.093949,0.599099,0.439819,0.15928,0.685122,0.265044,1.106651,0.68415,0.420698,0.263452,1.001541,0.271608,1.110422,0.770613,0.420528,0.350085,1.283168,0.293432,1.111715
257,15.0,15.0,15.429337,14.532109,14.342374,14.194159,13.464981,14.76199,14.493494,14.23779,14.664991,13.560967,14.130028,12.200459,13.166736,13.753466,13.237159,19.902528,15.66318,20.809026,13.851813,19.169272,13.095079,14.98975,19.264315,12.901269,17.66722,15.301199,10.270848,6.052788,5.529438,5.250375,14.58641,,4.605224,4.895236,-0.290012,1.947046,0.158505,1.070399,5.041268,4.903612,0.137656,0.764202,0.177259,1.12093,5.130177,4.914623,0.215553,0.903536,0.197447,1.1294,5.076425,4.924042,0.152382,0.721962,0.198564,1.130826,5.172239,4.903468,0.268771,1.075207,0.193869,1.132091
261,15.0,15.0,3.171532,3.381109,2.864467,3.275,2.755421,3.419997,3.213929,2.547497,3.229978,2.850995,2.811911,2.680595,2.936107,3.077489,2.840816,4.042937,3.615045,3.666418,3.714041,4.424352,3.748597,3.396885,3.865219,3.891815,3.441618,3.646896,2.619715,2.887238,2.188452,2.432784,3.048632,,2.063269,1.874049,0.18922,0.647692,0.139758,1.014146,2.025269,1.875087,0.150183,0.469103,0.158296,1.07948,2.02705,1.872065,0.154986,0.467721,0.178201,1.098802,2.034125,1.867123,0.167002,0.477517,0.184637,1.106045,2.12487,1.86286,0.26201,0.799371,0.183091,1.10984
265,15.0,15.0,1.988058,1.619719,2.00836,1.511291,1.547823,1.67347,1.523827,1.977109,1.924319,1.568378,1.740421,1.144283,1.164707,1.199451,1.28117,4.11394,2.336164,4.165688,2.55264,3.970484,2.402255,2.335646,3.81765,2.327146,4.226045,4.303072,0.253329,0.827885,0.795079,0.762385,2.815546,,0.240898,0.18855,0.052349,0.1994,0.127062,0.998927,0.273286,0.187852,0.085434,0.274595,0.140857,1.054307,0.275684,0.181967,0.093717,0.288289,0.147814,1.069509,0.298167,0.184773,0.113394,0.319078,0.152964,1.076712,0.302831,0.185725,0.117105,0.322899,0.158525,1.081111
272,15.0,15.0,16.207727,16.211971,16.1892,16.382998,16.157576,16.413009,16.188566,16.169939,16.378491,16.189625,16.178222,16.183173,16.18963,16.191555,16.189059,13.150191,13.430278,13.072804,13.473634,12.946677,13.45974,13.138299,12.998161,13.534288,12.916689,12.931129,12.944577,12.954581,12.946363,12.949676,30.626935,,17.339871,17.315075,0.024796,0.225016,0.139333,1.014195,17.336783,17.312938,0.023845,0.255787,0.150973,1.070183,17.356423,17.31176,0.044663,0.323095,0.160663,1.084072,17.366651,17.313763,0.052887,0.340748,0.185186,1.08924,17.288311,17.31285,-0.024538,0.715191,0.179052,1.091534
279,16.0,16.0,3.591348,3.214053,3.357129,2.268366,2.560616,2.509129,3.334399,2.497253,2.536109,2.680482,1.39828,1.584476,1.249368,1.457547,0.950436,2.657178,3.886311,2.57953,4.117526,2.260469,4.027605,2.947326,1.857915,4.216398,1.815104,1.627143,1.648195,0.994644,1.247179,1.419406,2.522581,,0.672736,0.156896,0.51584,1.942367,0.12876,1.010691,0.255795,0.150455,0.10534,0.257968,0.145925,1.066997,0.324028,0.155709,0.168319,0.488568,0.157397,1.085319,0.326639,0.16066,0.165978,0.492785,0.171281,1.092608,0.270589,0.162415,0.108174,0.283302,0.174961,1.095973
285,16.0,16.0,0.373551,0.68871,0.319793,0.950838,0.278698,0.733238,0.616618,0.248641,1.019159,0.277199,0.178527,0.174312,0.187519,0.17599,0.165938,1.190193,1.331986,1.145316,1.449125,0.848098,1.528237,1.16872,0.855623,1.704008,0.749283,0.776853,0.567845,0.56431,0.587442,0.580757,4.145163,,0.322787,0.155318,0.167469,0.329689,0.178156,0.983756,0.641776,0.150574,0.491202,1.502968,0.198299,1.048997,0.805044,0.163521,0.641523,2.125185,0.21187,1.065723,0.691602,0.154052,0.53755,1.676264,0.22468,1.073269,0.850976,0.154717,0.696259,2.303232,0.223992,1.078152
292,15.0,15.0,7.566111,7.234341,7.145056,7.019397,6.600704,6.57932,6.797019,5.845569,6.769547,6.390635,5.577615,6.63579,6.063204,5.621299,5.355446,8.129484,8.06385,7.736638,7.284715,8.323105,7.726903,6.964737,7.65299,7.902776,8.006377,5.454851,4.49513,2.78089,3.171461,3.11815,13.419918,,0.339741,0.283528,0.056213,0.218708,0.150554,1.047007,0.444631,0.293001,0.15163,0.599388,0.193862,1.104469,0.426176,0.291219,0.134957,0.513927,0.200949,1.11842,0.445374,0.306179,0.139195,0.556708,0.202826,1.123242,0.486052,0.299656,0.186396,0.650274,0.211269,1.125248
294,15.0,15.0,6.772391,7.309386,6.091926,6.903405,6.053804,7.22819,6.792884,5.531242,7.154263,5.247786,4.910021,6.071468,5.487773,5.663449,6.030547,23.107019,21.62779,22.979237,20.91989,22.688008,21.071353,19.962202,22.892617,20.94486,22.671058,21.568108,20.286379,18.447068,19.852747,20.004138,9.537321,,0.5831,0.485548,0.097552,0.192668,0.12549,0.997919,0.607303,0.49765,0.109652,0.229214,0.133619,1.054144,0.610369,0.49275,0.117619,0.233853,0.14179,1.07289,0.616122,0.490391,0.12573,0.241795,0.149399,1.08193,0.618168,0.493585,0.124583,0.247137,0.162959,1.087169
308,15.0,15.0,3.69946,2.831013,3.330329,3.14947,3.423298,3.25332,2.523979,2.432155,2.745121,2.813119,2.886232,2.740124,3.057512,2.6249,1.442831,6.021349,3.684628,5.724689,3.665255,5.988713,3.714978,3.571649,5.136832,3.525857,6.406578,5.592139,1.793712,2.203679,1.948614,1.726881,10.537579,,0.372324,0.210289,0.162035,0.703052,0.122107,0.982183,0.361712,0.196613,0.1651,0.574075,0.134281,1.044254,0.438615,0.196347,0.242267,0.853438,0.153535,1.060609,0.37684,0.20865,0.168191,0.586957,0.166401,1.068461,0.624027,0.213005,0.411022,1.540208,0.16678,1.072905
318,15.0,15.0,0.300709,0.396668,0.254981,0.412218,0.19044,0.498182,0.342864,0.182357,0.467752,0.181524,0.170935,0.187799,0.185482,0.177776,0.181499,4.123312,4.385796,4.042705,5.206543,2.334253,5.149894,4.264863,1.924249,5.040305,1.877407,0.214611,0.241808,0.239253,0.242676,0.269892,1.567702,,0.279646,0.169602,0.110043,0.396638,0.141844,0.977809,0.378698,0.175267,0.203432,0.611519,0.177904,1.0371,0.321001,0.182546,0.138455,0.456398,0.177986,1.055883,0.323911,0.180571,0.14334,0.462937,0.186739,1.064546,0.362529,0.17993,0.182599,0.619939,0.182481,1.06908
319,15.0,15.0,5.712254,6.710777,5.518934,6.403682,5.506092,6.196676,6.525425,5.540092,6.031718,5.526992,5.276964,6.281449,6.095449,5.798356,5.96759,34.26821,33.224778,34.31557,32.843152,33.060603,32.41073,32.894264,34.259897,32.784049,34.426995,34.996114,33.499036,33.202022,32.943485,32.710659,9.23786,,4.361296,4.211866,0.14943,1.825624,0.200082,1.003517,4.544645,4.200976,0.343669,2.688982,0.238619,1.060173,4.161382,4.176478,-0.015097,2.221985,0.276646,1.076096,4.14235,4.177514,-0.035163,2.181163,0.2839,1.08099,4.031969,4.162259,-0.13029,2.243044,0.309203,1.083111
329,15.0,15.0,2.002821,2.221627,1.907782,2.473925,1.734718,2.610596,2.130134,1.883366,2.175878,2.026149,1.555895,2.274652,2.459181,2.366205,2.263458,2.880165,2.455687,2.836175,2.634454,2.506128,2.492703,2.449869,2.511968,2.52524,2.51392,3.182538,1.546247,1.358332,1.373021,1.150932,3.569833,,0.515858,0.460135,0.055724,0.210718,0.134796,0.973918,0.5318,0.464309,0.067491,0.242364,0.155436,1.042684,0.540717,0.458454,0.082263,0.263342,0.165609,1.063809,0.602051,0.454256,0.147795,0.491661,0.181907,1.073103,0.546185,0.458172,0.088014,0.273272,0.180522,1.077843
344,15.0,15.0,0.67203,0.712713,0.562971,0.795759,0.536152,0.77135,0.578232,0.538677,0.806232,0.499234,0.416804,0.506649,0.461488,0.433371,0.430677,2.121144,2.521341,2.025271,2.618106,0.811801,2.768018,2.335057,0.820157,2.875097,0.782169,0.634545,0.698631,0.679889,0.691636,0.701773,0.628913,,0.67203,0.416804,0.255226,0.592137,0.31617,1.043099,0.712713,0.506649,0.206064,0.618168,0.442948,1.094229,0.795759,0.461488,0.334271,0.920726,0.361099,1.104704,0.77135,0.433371,0.337979,0.780169,0.395463,1.107946,0.806232,0.430677,0.375555,0.892413,0.375708,1.109433
349,15.0,15.0,2.099187,2.109445,2.073151,2.126898,2.06954,2.305177,2.078033,2.069013,2.385883,2.05915,2.043673,2.050355,2.03948,2.043842,2.041431,0.919297,1.237241,0.884878,1.24669,0.667367,1.267881,1.19345,0.662062,1.316718,0.653705,0.646134,0.632842,0.637577,0.630414,0.620446,1.650735,,2.099187,2.043673,0.055514,0.192974,0.130699,1.018081,2.109445,2.050355,0.059091,0.215482,0.152595,1.084712,2.126898,2.03948,0.087419,0.282019,0.158708,1.105374,2.305177,2.043842,0.261335,0.968701,0.170058,1.113981,2.385883,2.041431,0.344452,1.295533,0.173272,1.118708
356,15.0,15.0,8.858749,7.878443,8.246954,8.366874,8.201088,8.035062,6.872303,6.956437,7.751622,7.171906,6.460378,6.127102,6.527336,7.012959,6.492048,9.606291,10.103674,8.727081,10.277272,9.022013,9.732086,9.149981,6.882646,9.516059,7.221013,5.651311,6.174412,5.249227,5.291244,4.193464,12.181989,,2.653191,2.602056,0.051135,0.340604,0.128614,1.03592,2.85483,2.631596,0.223234,0.765396,0.169045,1.092066,2.730428,2.618044,0.112384,0.561519,0.179393,1.107465,2.82423,2.614282,0.209948,0.98477,0.172083,1.113696,2.969913,2.611647,0.358266,1.254819,0.173807,1.116384
358,15.0,15.0,1.196106,1.205653,1.153527,1.204995,1.101008,1.355811,1.160869,1.083657,1.447918,1.10022,1.06454,1.063777,1.058697,1.067326,1.066115,1.43893,1.732956,1.396955,1.719467,1.038285,1.837211,1.671509,1.036537,1.901408,1.041455,1.006383,1.022211,1.010592,1.01445,1.012161,1.026628,,1.258395,1.124378,0.134017,0.490624,0.162096,1.031759,1.22751,1.121188,0.106322,0.349307,0.182666,1.095928,1.247974,1.11818,0.129795,0.404945,0.199017,1.110846,1.320704,1.127658,0.193046,0.613767,0.201077,1.11582,1.338822,1.126125,0.212696,0.68566,0.207937,1.117965
371,15.0,15.0,2.438181,2.386023,2.26566,2.71166,2.233205,3.065817,2.372275,2.121106,2.846526,2.001011,2.133988,1.992938,1.986298,2.598421,2.303465,2.480645,2.080298,2.174411,2.40098,2.235132,2.533085,1.859239,2.264698,2.559397,2.522692,2.716057,0.508319,0.492271,0.641702,0.635064,1.884629,,0.222725,0.14661,0.076116,0.209025,0.129497,1.012563,0.250968,0.153023,0.097945,0.265196,0.159549,1.072627,0.441539,0.153788,0.287751,0.996507,0.161742,1.092226,0.542176,0.158081,0.384095,1.353619,0.169801,1.100287,0.586133,0.149916,0.436216,1.513927,0.172142,1.10421
379,15.0,15.0,3.078371,2.905434,2.398785,2.907115,2.061727,2.933271,2.617677,2.206958,3.241959,1.890378,2.074776,2.201469,1.819397,1.818844,2.654402,5.739811,4.346892,5.684215,5.374339,4.237139,5.405708,3.112051,5.045988,5.250431,4.324021,4.345604,0.813798,3.538999,3.153921,1.81288,3.794472,,0.357811,0.265017,0.092794,0.290318,0.185863,1.069538,0.387472,0.273723,0.11375,0.354539,0.217829,1.127324,0.413893,0.277737,0.136156,0.422688,0.229553,1.143411,0.443897,0.294099,0.149798,0.472288,0.254659,1.147731,0.440296,0.278561,0.161735,0.481845,0.27525,1.149352
381,15.0,15.0,2.765135,3.170257,2.082471,3.167093,2.314855,3.041515,3.067956,2.148933,3.227962,2.021214,2.201785,2.492003,2.930865,2.438078,2.830597,39.480932,39.281788,39.050931,38.584118,39.318878,38.613996,38.390984,39.500717,38.600826,39.535341,39.30887,38.312361,37.601961,37.717856,37.92061,2.142195,,1.27862,1.202028,0.076592,0.17443,0.099626,1.004118,1.29647,1.211581,0.084889,0.207033,0.122296,1.063509,1.301935,1.212386,0.089549,0.214569,0.13479,1.080039,1.44516,1.212678,0.232482,0.761416,0.140155,1.087189,1.624958,1.217201,0.407758,1.462199,0.132699,1.091287
382,15.0,15.0,16.559042,16.177208,15.984846,15.674856,15.172175,15.795439,15.558771,14.897518,15.291764,16.118789,15.64174,14.94446,14.777772,15.762171,15.406284,14.681847,14.605567,14.168877,13.487004,11.532771,13.669421,13.283619,11.741773,13.202938,10.402228,9.752343,8.55446,6.44051,5.455085,6.354083,19.46027,,0.735687,0.649647,0.08604,0.537058,0.188372,0.986126,0.721095,0.633333,0.087762,0.549106,0.202111,1.03311,0.797969,0.629385,0.168584,0.807244,0.204321,1.052952,0.832177,0.631133,0.201044,0.928416,0.207702,1.063753,0.830262,0.614827,0.215435,0.933232,0.218249,1.0694
392,15.0,15.0,4.353758,4.903981,4.544674,4.790583,4.276262,4.930051,4.682892,4.076535,4.914068,3.935018,3.923293,4.355704,4.514824,3.984379,4.265869,3.24818,2.564159,3.207688,2.153057,2.330888,2.478043,2.504399,2.317326,2.383574,2.320575,2.823914,2.564298,1.517713,1.643996,1.452479,6.779687,,2.67251,2.548772,0.123738,0.449954,0.161327,1.008136,2.819511,2.554597,0.264914,1.036963,0.180643,1.077784,3.047838,2.546214,0.501624,1.735888,0.186439,1.09767,3.149,2.552597,0.596403,2.213914,0.196053,1.105078,3.121826,2.559197,0.562629,2.071342,0.203521,1.108841
393,15.0,15.0,6.085958,5.850805,5.019563,5.76019,4.114009,5.51977,5.421342,4.112793,5.076275,3.807137,4.070822,5.074371,4.657249,4.341618,3.848082,9.115813,7.889566,8.814452,8.198896,7.695522,7.878576,8.110983,7.238705,7.47923,6.69452,7.327837,5.581256,5.922952,5.168521,5.860853,9.650618,,1.281334,0.545565,0.735769,2.089179,0.254359,1.012879,1.231106,0.56566,0.665446,1.759952,0.231195,1.078969,1.654351,0.540887,1.113464,2.701163,0.279114,1.088895,1.739596,0.561035,1.178561,2.999441,0.310065,1.091261,2.008285,0.562101,1.446185,3.542757,0.357427,1.09315
394,15.0,15.0,17.008909,16.697517,16.989961,17.187815,16.105852,16.695883,16.59754,16.326083,16.528988,15.996869,15.608515,16.399548,16.977807,16.972466,16.83749,6.740409,8.274061,6.420308,8.436311,4.555772,8.861282,7.66721,4.696207,9.030899,4.068344,4.091605,5.012112,5.12073,5.144769,5.335019,19.448151,,18.152887,17.901445,0.251441,1.45027,0.202741,1.007288,17.65338,17.87519,-0.22181,2.251451,0.191305,1.067925,17.758614,17.872673,-0.114059,2.662691,0.225566,1.082536,17.232242,17.709683,-0.477441,2.669972,0.439602,1.087696,17.012648,17.550758,-0.538111,2.595625,0.609345,1.089594
398,15.0,15.0,1.408108,1.422798,1.022016,2.208207,0.926485,2.295318,1.172218,0.688339,1.885546,0.741064,0.48595,0.440857,1.231396,1.027777,1.346164,2.446622,2.950955,2.086066,2.92368,2.37033,2.68566,2.833181,1.607373,2.947921,1.632202,1.011294,1.08857,1.145849,1.134673,1.648554,22.358148,,0.304555,0.224443,0.080112,0.265125,0.177841,1.041516,0.369371,0.215634,0.153737,0.474632,0.198164,1.095651,0.416036,0.231477,0.184559,0.595921,0.196351,1.112171,0.480991,0.233362,0.247629,0.800593,0.213043,1.118822,0.465522,0.229875,0.235647,0.731361,0.21565,1.122294
402,15.0,15.0,8.835426,9.03226,8.893031,9.675161,8.536587,9.395435,8.805406,8.619108,9.440114,8.945777,8.957401,8.270281,8.832462,8.535483,8.506752,13.509175,12.415394,13.424007,12.867091,8.570587,12.371951,11.770745,9.665979,12.613396,8.210943,7.71734,6.158131,5.958945,5.851674,5.599204,10.653289,,3.978532,3.805317,0.173215,0.626926,0.140687,0.987672,3.982819,3.792471,0.190348,0.650486,0.152823,1.046005,4.065807,3.81432,0.251487,0.892788,0.159637,1.059296,4.238314,3.819879,0.418436,1.100585,0.175212,1.062922,4.240456,3.826519,0.413937,1.099524,0.173659,1.064236
411,15.0,15.0,0.370668,0.386029,0.343301,0.397029,0.345584,0.462407,0.351592,0.329854,0.467848,0.331824,0.324695,0.32043,0.324498,0.324353,0.322203,3.172885,3.204171,3.139751,3.209548,2.863507,3.220309,3.16299,2.85351,3.219672,2.848148,2.839309,2.848352,2.849202,2.84909,2.844433,0.340992,,0.370668,0.324695,0.045973,0.159619,0.085352,1.007999,0.386029,0.32043,0.065599,0.192259,0.113396,1.066871,0.397029,0.324498,0.072532,0.210788,0.120339,1.085442,0.462407,0.324353,0.138053,0.457312,0.12425,1.094135,0.467848,0.322203,0.145644,0.462559,0.131465,1.098928
413,15.0,15.0,4.823939,4.613539,4.209929,4.433425,3.796275,4.74048,4.182245,3.273265,3.917137,3.236174,3.400505,2.59903,2.792397,2.576082,2.269831,6.055657,4.581255,6.459733,4.95316,4.421189,5.05213,4.145859,4.115256,4.894872,4.305364,4.535969,1.937725,1.3606,1.449614,1.502948,2.407896,,1.869556,0.653763,1.215793,3.057245,0.891634,1.029733,2.061199,0.68181,1.379389,3.869963,0.656986,1.074892,1.94349,0.647151,1.296338,3.130807,0.787154,1.083377,2.801215,0.695468,2.105747,6.356357,0.801839,1.084202,2.157846,0.625688,1.532157,4.123709,0.775692,1.083374
418,15.0,15.0,13.282562,12.6941,12.109628,12.720036,12.541913,12.985662,12.045433,12.560012,13.165369,12.534024,12.508494,11.500259,12.563731,12.228591,12.369569,10.114367,9.286315,9.212273,9.062033,9.322043,8.63571,8.140853,7.649022,8.598778,8.592142,8.039242,5.405189,6.314419,5.506491,5.061632,14.673501,,9.853383,9.809113,0.044271,0.200949,0.133317,1.033036,9.878791,9.817711,0.06108,0.265174,0.167067,1.082341,9.876865,9.81627,0.060595,0.26434,0.171214,1.094073,9.972359,9.805391,0.166968,0.542044,0.178148,1.097827,10.074043,9.801472,0.272571,0.920035,0.179265,1.099417
419,15.0,15.0,1.021374,1.225373,0.983533,1.166651,0.986265,1.204769,1.180934,0.974554,1.239843,0.970651,0.948641,0.955969,0.952213,0.958605,0.958582,3.132636,3.722089,3.053264,3.813505,1.866714,4.167724,3.563117,1.870159,4.202292,1.895318,1.899882,1.905558,1.904979,1.902327,1.890311,0.534248,,1.021374,0.948641,0.072732,0.180794,0.123138,0.987898,1.225373,0.955969,0.269404,0.936091,0.138053,1.047895,1.166651,0.952213,0.214438,0.684227,0.146714,1.065648,1.204769,0.958605,0.246164,0.750139,0.146962,1.072826,1.239843,0.958582,0.281261,0.945988,0.153732,1.076474
422,16.0,16.0,2.433746,1.749479,2.253813,1.91412,2.563196,1.769849,1.394932,2.416809,2.175889,2.107901,2.020198,1.639972,1.881267,1.624846,1.893748,2.994895,4.433289,2.853957,4.573897,1.062221,4.625634,3.965533,1.414141,4.716458,0.87083,0.875717,0.534714,0.636278,0.505647,0.771784,2.118435,,0.182296,0.082166,0.10013,0.220925,0.114616,0.992233,0.278226,0.078108,0.200118,0.511498,0.134983,1.053974,0.287522,0.077746,0.209776,0.52443,0.141223,1.072541,0.388531,0.083854,0.304677,0.695355,0.153287,1.080215,0.392709,0.074506,0.318202,0.702074,0.159947,1.083928
423,15.0,15.0,18.844036,18.355294,18.739244,19.08661,18.333081,19.638306,18.102822,17.882249,19.831207,17.846554,17.906031,17.750977,17.297892,18.159789,17.871057,16.899986,18.453734,15.986668,19.082623,14.446344,19.222564,17.400213,13.671929,19.443579,13.739434,12.058588,15.693503,15.083176,15.042903,15.224705,3.597629,,8.811508,8.157403,0.654105,3.234432,0.735072,1.006443,7.509576,7.279852,0.229725,4.334908,1.05309,1.06516,8.434934,7.271616,1.163318,3.758514,1.138097,1.072013,8.76853,7.270857,1.497673,5.411494,1.06642,1.073355,8.667498,6.985901,1.681597,6.994027,1.269418,1.073598
424,15.0,15.0,3.632226,3.232584,3.392793,3.032004,2.402605,3.278681,3.059409,2.535204,3.45674,2.73549,2.042583,2.631974,2.753352,2.450685,2.93756,3.295871,3.209608,3.277676,3.65858,2.4754,3.592078,3.261174,2.619048,3.727522,2.759215,1.9914,1.677418,2.256794,1.74684,1.744523,3.433012,,0.719659,0.658618,0.061041,0.347704,0.175375,1.031238,0.892097,0.666358,0.225739,1.109704,0.20232,1.086235,0.77263,0.661658,0.110972,0.550565,0.217949,1.102933,1.151774,0.651327,0.500447,1.905887,0.237882,1.111032,1.387219,0.669482,0.717737,2.797102,0.253892,1.115181
426,15.0,15.0,0.253805,0.418972,0.228173,0.572971,0.223305,0.444937,0.382249,0.219218,0.424423,0.199641,0.18233,0.194462,0.19387,0.186371,0.187105,1.130357,1.503897,1.104781,1.65973,0.680759,1.547509,1.389084,0.670792,1.720528,0.673561,0.651127,0.636679,0.626457,0.625891,0.630091,1.49136,,0.253805,0.18233,0.071475,0.209517,0.115798,1.037557,0.418972,0.194462,0.22451,0.75441,0.135534,1.093402,0.572971,0.19387,0.379101,1.235326,0.152939,1.107194,0.444937,0.186371,0.258566,0.761421,0.157204,1.112706,0.424423,0.187105,0.237319,0.691884,0.157227,1.115716
428,15.0,15.0,3.417997,3.105087,3.308443,2.617611,3.044437,3.026281,2.849424,2.827806,2.793143,2.920413,3.051477,2.674046,1.796772,2.038491,1.814351,4.662773,4.207974,4.613602,4.273319,3.649304,3.941182,4.352372,3.95174,4.186855,3.560639,2.814463,2.557918,2.311957,1.374451,1.119916,3.9711,,0.202482,0.142953,0.059529,0.181517,0.10523,1.044746,0.279154,0.148312,0.130841,0.427024,0.132505,1.098457,0.43748,0.148933,0.288547,1.015307,0.143702,1.114379,0.518542,0.155969,0.362573,1.323625,0.145556,1.120828,0.497265,0.15758,0.339685,1.235069,0.147599,1.123807
432,15.0,15.0,2.694586,3.285203,2.602289,3.68488,2.219091,3.184251,3.158679,2.241229,3.504059,2.138745,2.17808,2.666951,3.110089,2.884662,3.073118,3.560865,4.607401,3.614287,4.725139,2.741695,4.558798,4.295667,3.257745,4.594707,3.161829,3.342214,4.156813,3.679747,3.550167,3.544344,1.117177,,1.175449,1.000794,0.174655,0.643543,0.132046,0.980902,1.23208,1.022104,0.209977,0.768547,0.146503,1.043352,1.345178,1.032628,0.312551,1.062093,0.156931,1.064044,1.239435,1.040494,0.198941,0.61591,0.177634,1.072317,1.366037,1.037372,0.328665,1.000661,0.177663,1.076381
440,15.0,15.0,1.507174,1.553285,1.478884,1.57546,1.35742,1.62595,1.514976,1.192396,1.744837,1.190149,1.171932,1.181036,1.178325,1.197321,1.2032,8.786482,8.649499,8.43176,8.747325,7.740255,9.083525,8.166231,7.493255,9.109252,7.521523,7.484485,7.476247,7.452561,7.467741,7.480525,5.199351,,1.507174,1.171932,0.335243,1.143224,0.15541,1.008218,1.553285,1.181036,0.372249,0.984001,0.157144,1.065525,1.57546,1.178325,0.397134,1.070006,0.18061,1.082062,1.62595,1.197321,0.428629,1.021333,0.200942,1.089328,1.744837,1.2032,0.541637,1.354086,0.212439,1.093543
465,15.0,15.0,1.326953,1.339788,1.308583,1.346411,1.305036,1.346498,1.318588,1.300049,1.346119,1.299194,1.294176,1.294218,1.292713,1.290443,1.287064,1.908173,2.209559,1.881528,2.262134,1.138035,2.331053,2.179125,1.12109,2.334573,1.1331,1.120448,1.124687,1.124354,1.116945,1.120492,2.302266,,1.326953,1.294176,0.032777,0.183414,0.108103,1.005532,1.339788,1.294218,0.04557,0.211038,0.118417,1.076976,1.346411,1.292713,0.053699,0.223941,0.12013,1.098279,1.346498,1.290443,0.056055,0.233403,0.126518,1.106878,1.346119,1.287064,0.059056,0.237923,0.129799,1.111229
470,16.0,16.0,3.865618,4.068266,3.664645,4.401564,2.992536,4.298371,3.726721,2.952044,4.54867,2.629744,2.976995,2.165454,2.473478,2.219274,2.625217,5.612005,5.632908,5.144163,5.649312,5.128221,6.139991,4.861837,4.913306,5.846669,4.551954,3.404965,2.302156,2.366338,2.210815,2.13784,3.645312,,3.125035,2.25658,0.868455,3.241631,1.196512,0.958269,3.682702,1.791913,1.89079,4.579421,1.416284,1.005841,3.926774,1.894422,2.032352,5.079187,1.697748,1.010986,3.844302,1.753151,2.091151,5.123596,1.582665,1.012414,4.183793,2.222154,1.961638,5.324343,1.900136,1.012494
473,15.0,15.0,2.16044,2.193859,2.126117,2.224368,2.130557,2.197274,2.155374,2.10843,2.232141,2.123723,2.094696,2.099212,2.093888,2.102937,2.102216,1.150955,1.206723,1.113296,1.243975,1.099362,1.227502,1.161814,1.092893,1.21096,1.088527,1.075165,1.096265,1.091451,1.095973,1.077954,4.562321,,2.16044,2.094696,0.065744,0.21334,0.134423,1.020447,2.193859,2.099212,0.094647,0.307603,0.165135,1.083378,2.224368,2.093888,0.13048,0.417279,0.163877,1.104269,2.197274,2.102937,0.094337,0.302555,0.163077,1.113043,2.232141,2.102216,0.129925,0.381723,0.17129,1.117568
475,15.0,15.0,2.010348,2.076881,1.991129,2.235495,1.979383,2.318699,2.051836,1.98456,2.346071,1.989196,1.982118,1.983209,1.987686,1.988144,1.990553,4.016331,5.178354,3.78153,5.287166,2.638006,5.304593,4.918816,2.644861,5.329172,2.65546,2.619314,2.610142,2.623004,2.627767,2.627196,1.465169,,2.010348,1.982118,0.028229,0.151461,0.105596,0.9735,2.076881,1.983209,0.093672,0.367279,0.137365,1.036738,2.235495,1.987686,0.247809,0.636006,0.140638,1.058246,2.318699,1.988144,0.330555,1.125626,0.147584,1.067075,2.346071,1.990553,0.355518,1.217408,0.143992,1.0718
479,15.0,15.0,26.371134,26.871891,25.696844,27.138955,25.838644,27.091457,26.783598,26.17628,27.329739,26.174068,25.490736,26.234931,26.506248,26.337324,26.873273,26.469018,27.947299,26.417613,28.390834,26.020759,27.659891,27.309229,25.896251,27.659281,26.297361,25.399031,26.992701,27.173266,24.744329,24.072393,22.332869,,24.024916,24.011103,0.013814,0.803109,0.240389,1.052908,24.09157,23.992186,0.099384,1.047327,0.281986,1.098066,24.08209,24.014835,0.067255,1.34769,0.3021,1.107379,24.111399,23.999544,0.111855,1.310693,0.325212,1.108019,24.127362,23.985061,0.142301,1.579809,0.322939,1.107157
485,15.0,15.0,14.367894,13.906481,14.045542,13.752951,13.741719,14.057934,13.443942,13.344208,14.099848,13.984469,13.775905,13.758897,13.277275,13.464687,13.138195,15.472453,14.731052,15.025405,14.676632,14.83413,15.247619,14.596022,15.394741,15.60438,15.064611,15.303086,14.272077,13.277374,13.647312,13.698102,15.090429,,11.321994,11.132291,0.189703,2.322324,0.29249,1.010528,11.541642,11.119885,0.421757,4.304516,0.338546,1.074601,11.393227,11.188937,0.20429,3.567361,0.324815,1.091917,11.310095,11.113122,0.196973,3.998897,0.386208,1.097262,11.494918,11.139372,0.355547,4.015749,0.396361,1.099544
486,15.0,15.0,4.477904,4.534783,4.44582,4.612292,4.497761,4.633782,4.491804,4.48808,4.720967,4.465938,4.457059,4.454839,4.466734,4.484469,4.518148,8.217963,8.740781,8.124539,8.832792,5.92725,8.880715,8.632387,5.804826,8.895816,5.816143,5.677745,5.843169,5.694419,5.811189,5.765021,4.213534,,4.477904,4.457059,0.020845,0.60371,0.196867,1.00385,4.534783,4.454839,0.079945,0.671824,0.224262,1.0656,4.612292,4.466734,0.145557,1.008995,0.306247,1.080362,4.633782,4.484469,0.149313,1.199547,0.350661,1.08513,4.720967,4.518148,0.20282,1.050241,0.295928,1.086573
487,15.0,15.0,1.999229,2.014803,1.979753,2.024339,1.963231,2.126417,1.986993,1.954266,2.128494,1.947809,1.947323,1.945061,1.949906,1.944067,1.945433,2.093966,2.265315,1.991187,2.56558,1.828406,2.641516,2.181459,1.823429,2.879597,1.831571,1.828829,1.836006,1.832146,1.822992,1.820451,2.754536,,1.999229,1.947323,0.051906,0.213681,0.109844,0.971515,2.014803,1.945061,0.069742,0.240616,0.129464,1.039643,2.024339,1.949906,0.074434,0.253042,0.138464,1.0592,2.126417,1.944067,0.18235,0.641814,0.146308,1.067637,2.128494,1.945433,0.183061,0.644775,0.141331,1.072443
495,16.0,16.0,11.086887,11.512034,10.880866,12.378892,9.634929,13.292444,11.50088,9.824088,12.7187,9.376913,9.721509,10.426025,11.248848,11.528339,10.958648,25.103951,24.574113,23.78038,23.760037,24.161011,23.473601,23.252933,23.983204,23.413078,23.853223,24.051458,20.928878,22.162244,20.119039,19.882244,0.75761,,1.205256,0.117362,1.087893,2.872656,0.150386,0.992588,2.094418,0.165546,1.928872,3.958988,0.20254,1.048089,2.544893,0.296999,2.247894,4.606796,0.359937,1.062937,3.002325,0.487471,2.514854,5.168256,0.491244,1.067143,3.064821,0.490837,2.573984,5.260433,0.492225,1.068346
496,30.0,30.0,2.243027,2.609396,2.111377,2.915341,1.891063,2.634066,2.518304,1.926351,2.889138,1.759632,1.891956,2.26966,2.22076,2.259449,2.443515,3.356427,3.429584,3.276524,3.519628,1.768254,3.484609,3.098299,2.065336,3.713735,1.703281,1.463361,1.257834,1.413034,1.548104,1.548882,1.360347,,0.412682,0.17593,0.236753,0.623135,0.134641,0.999738,0.566706,0.167971,0.398734,1.182558,0.160723,1.062277,0.491956,0.167561,0.324395,0.785568,0.167234,1.079389,0.578746,0.176134,0.402612,1.106127,0.180273,1.0865,0.694825,0.195396,0.499429,1.13156,0.187775,1.090189
499,15.0,15.0,13.772648,14.630395,13.733385,14.319625,12.39388,14.487991,14.534009,12.274767,14.785462,11.884112,12.516648,12.734571,12.652861,13.017583,13.536939,17.362908,17.808607,17.302718,17.4588,15.729021,17.414248,17.532971,15.652952,17.531108,14.706132,14.360413,13.349931,13.74751,14.525371,14.607542,11.043108,,12.257481,10.881607,1.375874,7.603733,3.947944,0.864816,12.962402,11.37482,1.587582,8.204803,4.10832,0.924081,12.540279,10.998091,1.542188,7.137413,4.163567,0.938665,12.655084,11.234501,1.420583,7.293711,4.30326,0.944126,12.933982,11.828217,1.105765,7.239596,4.554343,0.946367
500,15.0,15.0,25.013397,25.323522,24.93717,24.832265,25.238935,24.961256,25.25826,25.197816,25.180565,25.233725,25.271698,25.683153,24.654309,24.767772,25.357374,21.520581,21.342486,21.387031,21.348621,21.725005,21.062438,21.031531,21.031731,21.028395,21.372382,21.674064,19.93023,20.050808,19.873753,20.266704,24.816281,,23.626546,23.613759,0.012788,0.247955,0.135396,1.014185,23.662117,23.615637,0.04648,0.454378,0.15863,1.073058,23.673686,23.589126,0.08456,0.487342,0.168325,1.091072,23.628204,23.593322,0.034882,0.910205,0.185243,1.099025,23.622297,23.591955,0.030341,1.101978,0.20673,1.103329
502,15.0,15.0,6.306474,6.348721,6.268736,6.357276,6.241287,6.362537,6.306994,6.236754,6.406737,6.232267,6.217747,6.218514,6.220768,6.223905,6.21932,4.168763,4.188904,4.070204,4.381597,2.481535,4.347858,4.06586,2.63461,4.242181,2.406701,2.375854,2.357552,2.365683,2.36377,2.363837,6.288649,,6.306474,6.217747,0.088727,0.220627,0.120512,0.977146,6.348721,6.218514,0.130207,0.340287,0.143249,1.041202,6.357276,6.220768,0.136509,0.348444,0.149339,1.061641,6.362537,6.223905,0.138632,0.362958,0.140127,1.070406,6.406737,6.21932,0.187417,0.538665,0.143619,1.075042
503,16.0,16.0,8.31289,8.389128,7.965987,8.326962,7.987734,8.48167,7.810653,7.917811,8.589921,8.447782,8.597937,7.650207,7.644383,7.713645,7.824794,7.650653,7.493139,6.790836,7.236672,5.580533,7.592965,6.542743,5.836117,7.559689,4.414348,2.917987,3.012187,3.548712,3.994877,3.742463,10.223043,,5.339028,5.691625,-0.352596,2.525352,1.949759,1.012358,5.439124,5.504959,-0.065836,2.825067,1.956283,1.06499,5.309981,5.263635,0.046346,2.717739,2.092157,1.079859,5.381158,5.07388,0.307278,2.804414,2.309257,1.085048,5.543343,5.246001,0.297343,3.110516,2.170842,1.087626
509,15.0,15.0,5.167887,5.730437,4.866641,6.248052,4.867674,6.310151,5.577839,4.681456,6.421703,4.554747,4.21655,4.731272,4.803178,4.486041,4.124355,32.264516,30.569017,31.510592,30.533868,34.766573,29.906547,29.645387,33.560124,30.018439,35.05648,33.881062,32.554169,31.814417,31.099141,31.859906,4.677367,,2.898333,2.889546,0.008787,1.795401,0.129943,0.988998,3.393927,2.895373,0.498554,3.327184,0.162661,1.043528,3.72852,2.894179,0.834342,3.81109,0.201828,1.054932,3.855388,2.567119,1.28827,3.992895,0.55767,1.058212,4.053225,2.175241,1.877984,4.306066,0.934489,1.05958
510,15.0,15.0,0.481031,0.502981,0.449556,0.536371,0.455,0.547264,0.465027,0.440592,0.555734,0.427133,0.414401,0.413984,0.422017,0.421583,0.427352,16.390458,17.512586,16.338078,17.66053,15.691088,17.673843,17.456442,15.582665,17.73699,15.430687,15.419909,15.420943,15.429397,15.437319,15.442921,2.17617,,0.501466,0.435279,0.066187,0.171257,0.119606,0.978295,0.520483,0.437668,0.082815,0.200241,0.125095,1.046347,0.558363,0.445838,0.112525,0.316016,0.123557,1.064851,0.569557,0.446157,0.1234,0.335556,0.130941,1.071917,0.577753,0.45077,0.126984,0.351336,0.13957,1.075042
512,15.0,15.0,6.534407,6.425345,6.221619,6.169575,6.202176,6.09383,6.19624,5.958623,6.246489,6.013635,6.130338,6.09795,5.689866,5.576101,5.736311,15.408912,14.571862,15.39115,13.84229,15.086861,14.077854,14.422199,15.384324,14.01802,15.651057,17.093905,13.361284,12.244171,12.709865,12.841618,5.302597,,5.398693,5.34342,0.055273,0.213616,0.142041,1.044365,5.432218,5.344805,0.087413,0.300233,0.1711,1.108933,5.446969,5.36609,0.080879,0.334484,0.167251,1.125698,5.45605,5.370584,0.085467,0.356776,0.171405,1.132361,5.471186,5.363208,0.107978,0.409679,0.182901,1.136132
517,15.0,15.0,6.598888,5.927279,5.645238,6.013138,5.473873,6.022412,5.406064,4.80854,6.060037,4.810553,4.045745,4.114472,4.435457,4.382813,4.538064,5.545387,6.405698,5.257181,6.897782,5.17232,6.318842,6.173685,5.056215,6.378965,5.350611,3.64427,4.296232,7.192219,6.235712,6.064389,5.273623,,4.204121,4.055091,0.149031,0.394177,0.208513,1.073701,4.525969,4.057097,0.468872,1.451816,0.232127,1.126372,4.540913,4.056574,0.484339,1.576719,0.247241,1.141588,4.42975,4.054095,0.375655,1.148479,0.252927,1.148397,4.468326,4.050787,0.417539,1.242741,0.266777,1.151956
519,15.0,15.0,7.338596,6.932664,6.897664,7.720136,6.295618,7.276626,6.500111,6.560987,7.205784,6.189931,7.48174,4.973638,6.588901,5.557873,5.791973,25.755192,24.664901,25.364865,23.597142,24.881866,24.984871,24.251653,26.099056,24.605405,24.599324,23.227391,22.910278,21.708987,22.671217,22.555005,5.801587,,1.079742,0.6399,0.439842,1.323062,0.38587,1.01959,1.482506,0.673525,0.808982,2.218006,0.388499,1.069577,1.786618,0.666859,1.119759,2.988699,0.406735,1.07851,1.900021,0.73571,1.164311,3.233571,0.429988,1.08057,1.967221,0.747918,1.219303,3.081305,0.452222,1.081193
526,15.0,15.0,2.397434,2.441756,2.4637,2.355021,2.225273,2.633539,2.301098,2.055783,2.776364,1.936851,1.934496,2.516554,2.242546,2.26046,2.172122,8.960549,9.19996,7.94144,9.215683,7.497303,9.358553,8.425246,6.629712,9.344587,5.262517,5.10834,5.644125,5.940904,5.696443,5.696174,0.0541,,0.633568,0.181226,0.452342,1.260773,0.177708,0.990737,0.748496,0.189983,0.558513,1.075683,0.216998,1.049046,0.906547,0.197158,0.70939,1.388216,0.237707,1.064664,1.026105,0.212698,0.813407,1.762398,0.259607,1.068722,1.157437,0.216816,0.940622,2.254224,0.268605,1.070095
529,15.0,15.0,3.400419,3.551764,3.396026,3.511117,3.084796,3.989287,3.466244,3.045687,4.055793,2.597059,2.504837,3.330302,3.069836,3.374681,3.196541,2.206504,2.370759,1.68736,2.407849,1.610571,2.647931,2.145146,1.55015,2.591485,1.393911,0.555441,1.480382,1.227156,1.095933,1.170803,8.337979,,0.890075,0.205048,0.685027,1.625359,0.341877,1.063187,0.788692,0.245306,0.543386,1.144661,0.381678,1.122066,0.94989,0.246998,0.702892,1.548469,0.566252,1.134394,1.066835,0.287777,0.779058,1.928592,0.573088,1.139422,1.227134,0.289721,0.937413,2.51476,0.504113,1.141951
535,14.0,14.0,0.676046,0.82741,0.642487,0.971199,0.595841,0.856519,0.79822,0.615074,0.785536,0.60858,0.555992,0.581525,0.586746,0.589449,0.569374,0.714257,1.439957,0.646504,1.574782,0.566272,1.552605,1.262555,0.56757,1.617013,0.552381,0.535498,0.516363,0.513822,0.509103,0.511548,0.461722,,0.676046,0.555992,0.120054,0.337234,0.152592,0.996433,0.82741,0.581525,0.245885,0.618612,0.174091,1.064206,0.971199,0.586746,0.384453,0.969512,0.196953,1.081878,0.856519,0.589449,0.267071,0.667723,0.202643,1.088326,0.785536,0.569374,0.216162,0.57771,0.212728,1.092101
540,15.0,15.0,1.660745,1.474968,1.58854,1.647815,1.142136,1.627289,1.384049,0.948118,1.6968,0.92273,0.788413,0.711509,0.524472,0.602851,0.802851,3.524041,3.358853,3.051979,3.671986,3.414086,3.495497,3.059579,3.145074,3.85552,4.257439,2.619786,1.918627,1.937896,2.198285,2.192583,0.10175,,1.738529,0.83683,0.901699,3.05385,0.721488,1.073228,1.56374,0.751645,0.812095,2.394981,0.681554,1.124895,1.660099,0.548867,1.111233,3.308627,0.616014,1.135206,1.661693,0.632841,1.028853,3.119694,0.646387,1.137533,1.687287,0.844513,0.842773,2.880407,0.861424,1.138148
542,15.0,15.0,0.589368,0.462788,0.418434,0.665848,0.313127,0.765701,0.295954,0.288638,0.802991,0.203934,0.214686,0.210299,0.205497,0.173403,0.292954,1.940427,2.514866,1.830447,2.542116,0.757994,3.055386,2.354153,0.562869,3.29136,0.27592,0.269935,0.312316,0.309146,0.323249,0.319562,1.319002,,0.589368,0.214686,0.374682,0.845093,0.350163,0.970498,0.462788,0.210299,0.252489,0.645098,0.290826,1.03548,0.665848,0.205497,0.460352,0.989174,0.372524,1.054627,0.765701,0.173403,0.592298,1.237448,0.391452,1.063035,0.802991,0.292954,0.510037,1.326205,0.379701,1.067562
545,16.0,16.0,3.776241,3.47427,3.83864,3.582448,4.163943,3.906911,3.548817,3.830733,3.70399,4.161791,3.458852,3.3574,3.486934,3.613106,3.647748,2.479068,1.63092,2.425954,2.600941,2.410602,2.322422,1.178657,2.392642,2.46819,2.373473,2.013619,0.2964,1.741658,1.569709,1.500736,3.771761,,0.27241,0.160731,0.111679,0.246715,0.158398,1.053694,0.395058,0.16904,0.226018,0.660899,0.176859,1.113076,0.352254,0.170344,0.18191,0.439669,0.18484,1.127957,0.39497,0.170819,0.224151,0.573358,0.194483,1.132737,0.364634,0.171259,0.193375,0.456976,0.202012,1.134716
548,15.0,15.0,0.200979,0.341387,0.157528,0.419036,0.144479,0.505642,0.293604,0.13286,0.560077,0.136484,0.124599,0.122105,0.124476,0.128961,0.132337,0.282943,1.076149,0.236457,1.273254,0.176216,1.479241,1.030223,0.16876,1.469382,0.1667,0.137899,0.152511,0.149737,0.156676,0.152388,0.654359,,0.200979,0.124599,0.07638,0.20849,0.141764,1.038765,0.341387,0.122105,0.219282,0.593353,0.158253,1.093873,0.419036,0.124476,0.29456,0.78181,0.177709,1.111097,0.505642,0.128961,0.376681,0.982947,0.187013,1.117599,0.560077,0.132337,0.42774,1.001455,0.197079,1.120871
556,16.0,16.0,0.856154,0.961138,0.763104,1.098925,0.788025,0.962779,0.854183,0.777174,1.015483,0.778829,0.74126,0.745798,0.749076,0.746468,0.747298,1.062918,1.108531,1.039988,1.083983,1.004852,1.092134,1.081725,1.004689,1.113308,0.996025,0.98303,0.981072,0.972164,0.970452,0.964272,1.74372,,0.856154,0.74126,0.114894,0.603767,0.150056,1.075191,0.961138,0.745798,0.21534,0.943645,0.170155,1.137921,1.098925,0.749076,0.349849,1.461488,0.179177,1.153041,0.962779,0.746468,0.216312,0.886195,0.198059,1.158107,1.015483,0.747298,0.268185,1.077134,0.203502,1.160293
562,16.0,16.0,3.824661,3.369629,3.805863,3.775864,3.778959,3.415499,3.418638,3.640234,3.287728,3.739695,3.699646,3.424801,3.618521,2.943191,3.004247,3.695006,2.851354,3.65025,2.846865,2.828747,3.379758,2.799198,0.318418,3.262623,0.331609,0.301568,1.044581,2.042379,2.623522,1.985336,2.011221,,0.450579,0.41208,0.038499,0.270101,0.161825,1.027058,0.469788,0.395181,0.074606,0.319753,0.193608,1.083568,0.46917,0.394252,0.074918,0.325702,0.21461,1.100106,0.494647,0.397817,0.096831,0.426793,0.224253,1.107295,0.522243,0.403298,0.118945,0.53988,0.223533,1.11069
565,15.0,15.0,4.760482,5.416361,4.60177,4.841892,4.627538,5.188613,5.322644,4.428283,5.089832,3.531918,3.333057,3.569752,3.512814,3.642913,3.612934,6.86823,4.742821,6.935692,5.051476,5.774345,5.374357,4.141637,5.382523,5.329782,5.785108,6.297197,2.195512,1.966679,3.099976,2.870544,20.057626,,2.497217,2.39353,0.103687,1.019741,0.754135,0.968847,3.422762,3.058121,0.364641,1.57578,0.989828,1.033892,3.342825,3.146247,0.196577,1.369454,0.858717,1.052321,3.291211,3.203721,0.08749,1.508832,0.885582,1.0609,3.25714,3.224663,0.032478,1.513317,0.866548,1.064625
568,15.0,15.0,1.407631,1.492585,1.332823,1.529609,1.034059,1.607625,1.426987,0.97549,1.565085,0.862207,0.856957,0.815332,0.818292,0.824766,0.86533,13.458375,13.081223,12.454137,12.615784,12.31892,12.440027,11.889847,12.597271,12.284452,12.041783,12.28272,12.571423,10.896998,10.936035,10.889228,1.849479,,1.025447,0.866319,0.159128,0.776705,0.465055,0.99211,1.295095,0.844323,0.450772,1.498615,0.558488,1.057622,1.291851,0.816475,0.475376,1.456182,0.630873,1.075376,1.381005,0.85325,0.527755,1.639114,0.605108,1.081647,1.359353,0.861536,0.497817,1.429697,0.624032,1.084547
576,16.0,16.0,3.593537,3.4616,3.569624,3.538122,3.38908,3.517992,3.283188,3.146569,3.416037,3.328265,3.192556,2.839514,2.91991,3.061627,3.049331,2.272236,2.631853,2.102875,3.136865,1.921993,3.562829,2.479144,1.908635,3.612654,1.886823,1.228719,1.725872,1.953158,2.116511,2.124953,1.579513,,1.508001,1.356934,0.151067,0.623047,0.152519,0.964183,1.425187,1.362012,0.063175,0.268661,0.16947,1.029408,1.653221,1.375833,0.277388,1.282093,0.184817,1.047424,1.746759,1.373827,0.372932,1.521491,0.18099,1.055173,1.532239,1.364223,0.168016,0.73205,0.186359,1.059936
579,15.0,15.0,1.514533,1.530988,1.49355,1.533969,1.465525,1.558585,1.497516,1.466653,1.572965,1.455805,1.440773,1.435781,1.433256,1.43589,1.440034,2.361982,2.435513,2.33817,2.470959,2.319938,2.50353,2.390166,2.329325,2.585645,2.319951,2.30112,2.289558,2.283352,2.280484,2.274555,2.712479,,1.514533,1.440773,0.07376,0.338577,0.178958,1.008552,1.530988,1.435781,0.095207,0.350807,0.20907,1.071811,1.533969,1.433256,0.100714,0.362045,0.216106,1.090324,1.558585,1.43589,0.122695,0.421981,0.220372,1.098459,1.572965,1.440034,0.132931,0.470775,0.227399,1.102723
582,15.0,15.0,8.102653,8.034424,7.831401,7.972095,7.819195,8.326501,7.979379,7.616601,8.325162,7.667389,7.024449,6.583413,6.595904,6.618041,6.579612,7.977544,8.625909,7.631575,8.411449,6.626709,8.619161,7.741882,5.737444,8.823464,5.258844,3.147943,3.670356,4.44971,4.693799,4.963898,4.807077,,4.47545,3.547244,0.928207,2.277573,0.139412,1.002112,4.787636,3.555517,1.232119,2.713084,0.171022,1.0592,5.052101,3.586971,1.46513,3.064723,0.198412,1.071899,5.221241,3.594318,1.626923,3.547149,0.2104,1.076221,5.32431,3.602415,1.721895,3.555873,0.226054,1.078059
592,15.0,15.0,4.706298,3.835484,3.489162,3.893866,2.914352,3.901025,3.256595,2.119214,3.82991,1.810114,1.279379,1.203845,1.182844,1.247047,1.950453,8.56358,6.628667,7.828025,6.667674,7.710053,6.09603,5.353582,6.649344,5.639391,6.882286,8.505917,4.467509,3.929844,2.776339,2.61329,7.101137,,1.240909,1.130248,0.110661,0.338731,0.168393,1.020531,1.258586,1.135623,0.122964,0.369887,0.19733,1.081076,1.309395,1.138967,0.170428,0.531134,0.201508,1.097863,1.3515,1.128366,0.223134,0.625276,0.206523,1.104733,1.39093,1.132816,0.258115,0.724969,0.230566,1.108377
606,16.0,16.0,2.575218,2.696055,2.548552,2.861344,2.505611,3.013261,2.604411,2.590811,2.82249,2.49302,2.505615,2.358509,2.026331,2.932297,2.683074,24.64405,24.730626,23.569601,24.278821,23.88248,24.421859,23.856203,23.691248,24.781067,23.885879,23.63565,24.372,24.566225,24.76388,25.19087,1.224576,,0.280202,0.206926,0.073276,0.178952,0.102908,0.966725,0.329815,0.209399,0.120416,0.30544,0.116876,1.030951,0.32809,0.197133,0.130957,0.311195,0.109735,1.048746,0.335146,0.191691,0.143454,0.32061,0.122541,1.055934,0.334294,0.196967,0.137327,0.321709,0.122108,1.059793
618,15.0,15.0,20.289684,18.967748,19.104568,19.767618,18.72693,17.59711,18.095498,19.112784,18.18608,18.560008,18.942898,17.628222,18.464874,16.589949,17.336658,31.520112,26.960298,30.532546,27.822345,28.760775,27.244886,25.356867,29.702886,26.023483,28.106289,28.370862,17.552545,20.828503,19.921605,17.293665,29.156218,,4.136885,3.231651,0.905233,3.816732,1.729092,1.030006,4.080213,3.622132,0.458081,4.093575,2.495655,1.080408,3.936652,3.023903,0.912749,3.619197,1.684846,1.089238,3.690078,3.014024,0.676054,3.623295,1.710329,1.091057,3.980945,3.506249,0.474696,3.730951,1.492534,1.090468
621,15.0,15.0,1.370172,1.198346,1.297075,1.358126,1.107999,1.299377,1.127611,1.070581,1.291201,1.040577,1.031196,1.0368,1.045852,1.018216,0.983669,1.454868,1.913974,1.372828,1.98691,0.815901,2.228311,1.742366,0.827504,2.262947,0.796182,0.758145,0.732536,0.73868,0.748067,0.748116,0.970957,,1.370172,1.031196,0.338976,1.142117,0.208657,0.99527,1.198346,1.0368,0.161546,0.519635,0.268646,1.052449,1.358126,1.045852,0.312275,0.984033,0.286284,1.066752,1.299377,1.018216,0.281162,0.712875,0.284147,1.072004,1.291201,0.983669,0.307531,0.778319,0.305811,1.074314
623,15.0,15.0,6.329836,6.639396,5.862549,5.736631,5.157257,5.808375,6.337609,5.693819,5.91227,5.483688,3.882409,4.245467,4.126425,4.399564,4.410593,18.576979,16.944964,18.329018,16.97995,17.601885,16.4496,15.57773,16.706455,16.483839,17.091839,15.272507,12.397864,13.58999,12.258775,12.195999,6.218486,,2.758033,2.167457,0.590576,1.439533,0.659465,0.982012,2.564657,2.216106,0.348552,1.161801,0.517704,1.048276,3.029629,2.259286,0.770342,1.835545,0.602373,1.067795,2.797157,2.179178,0.617979,1.62211,0.528545,1.076447,2.772142,2.494413,0.277729,1.332395,0.742769,1.081487
627,15.0,15.0,6.297558,6.359221,6.033373,5.976754,5.780127,5.857466,6.03804,5.422616,5.735873,5.623027,5.863158,5.687682,5.463043,5.565972,5.036987,9.654234,9.781653,9.598621,9.025442,9.288912,8.24987,9.806482,8.958745,7.807566,8.673294,9.808308,10.003276,8.920765,8.061807,7.572502,4.986886,,1.135777,0.456833,0.678945,1.803677,0.34547,0.999528,0.909525,0.425831,0.483694,1.376846,0.31598,1.062428,1.010504,0.492434,0.51807,1.499753,0.375867,1.079777,1.026722,0.515986,0.510736,1.415707,0.423914,1.085689,1.169448,0.491116,0.678332,1.833635,0.418765,1.088147
629,15.0,15.0,2.169179,2.184427,2.148042,2.188715,2.140973,2.192768,2.158636,2.125104,2.196665,2.112842,2.115748,2.110872,2.113734,2.112656,2.110347,26.456226,26.469357,26.433185,26.477126,26.523835,26.472658,26.444781,26.530142,26.5864,26.535174,26.542043,26.53165,26.537233,26.52966,26.525614,3.543365,,2.169179,2.115748,0.053431,0.176551,0.121846,1.030909,2.184427,2.110872,0.073555,0.199667,0.132018,1.086227,2.188715,2.113734,0.074981,0.211322,0.141945,1.103426,2.192768,2.112656,0.080111,0.217258,0.146236,1.109997,2.196665,2.110347,0.086318,0.221416,0.147265,1.113001
631,15.0,15.0,1.162285,1.197268,1.128208,1.232039,1.089888,1.249008,1.160245,1.089023,1.274237,1.092985,1.07037,1.078695,1.086203,1.083743,1.087997,1.35481,1.619526,1.243203,1.744016,0.657246,1.842304,1.499875,0.954245,1.864082,0.639157,0.6076,0.612493,0.615693,0.651128,0.651344,4.253471,,1.162285,1.07037,0.091915,0.300202,0.115442,1.000086,1.197268,1.078695,0.118572,0.371969,0.123145,1.059594,1.232039,1.086203,0.145836,0.515811,0.133257,1.079587,1.249008,1.083743,0.165265,0.577664,0.135465,1.088101,1.274237,1.087997,0.186241,0.649425,0.14002,1.092523
639,16.0,16.0,6.981007,7.549734,6.689585,7.103392,6.532614,7.253608,7.284279,6.712875,7.496338,6.576908,6.426203,7.167004,6.439141,6.886798,6.817357,6.635774,7.377057,6.190643,7.69787,4.78276,7.703581,6.404971,4.141755,7.976873,5.033289,4.498992,4.372911,4.646717,4.452785,4.271472,18.766984,,5.05227,4.977198,0.075072,0.409374,0.140284,0.990291,5.074137,4.984443,0.089694,0.47929,0.162426,1.053636,5.213846,4.979029,0.234817,1.011991,0.173942,1.069271,5.27958,4.969447,0.310133,1.198255,0.176267,1.075306,5.315569,4.974765,0.340804,1.315198,0.194982,1.078083
641,15.0,15.0,2.699063,2.525912,2.660588,3.109996,2.276118,2.926077,2.518142,2.499008,2.841545,2.370622,2.617435,2.21057,2.88283,3.027948,2.976353,1.951264,1.274592,1.586953,1.150809,1.245231,1.318438,1.123503,1.48386,1.337426,1.406761,1.477186,0.680469,0.709809,0.317379,0.315341,1.930063,,0.300415,0.147572,0.152843,0.506131,0.128682,1.065453,0.314826,0.149618,0.165208,0.522242,0.157794,1.117643,0.311745,0.150683,0.161062,0.482177,0.167367,1.13074,0.343602,0.148159,0.195443,0.527609,0.166602,1.135412,0.384431,0.147952,0.236479,0.627973,0.169364,1.137424
644,15.0,15.0,1.070402,1.014304,0.989519,1.080901,0.880579,1.05277,0.905934,0.923031,1.25586,0.892668,0.864898,0.590253,0.616715,0.60776,0.6044,0.83649,1.411969,0.670273,1.629275,0.317756,1.775089,1.252546,0.392313,1.849905,0.203638,0.131242,0.169757,0.189887,0.215692,0.234786,1.648328,,1.070402,0.864898,0.205504,0.878956,0.300554,1.022938,1.014304,0.590253,0.424051,1.107366,0.572636,1.085917,1.080901,0.616715,0.464186,1.138422,0.67008,1.099893,1.05277,0.60776,0.445011,1.128132,0.655384,1.105426,1.25586,0.6044,0.65146,1.875089,0.722577,1.108662
648,15.0,15.0,2.571355,2.641592,2.558609,2.733212,2.556288,2.756111,2.625374,2.558919,2.740085,2.553436,2.548955,2.557869,2.543898,2.548784,2.556142,2.713562,2.748752,2.686545,2.759584,2.669688,2.765907,2.712148,2.666588,2.769643,2.655614,2.621343,2.620302,2.621508,2.621196,2.625813,4.525317,,2.571355,2.548955,0.0224,0.187645,0.116269,1.031475,2.641592,2.557869,0.083724,0.437879,0.142603,1.09311,2.733212,2.543898,0.189314,0.807314,0.156384,1.112268,2.756111,2.548784,0.207327,0.85427,0.157248,1.120667,2.740085,2.556142,0.183943,0.787533,0.157762,1.125233
658,15.0,15.0,6.647388,6.851756,6.553309,7.257343,6.606588,6.792149,6.617146,6.274795,6.709146,6.130833,6.109559,6.287159,6.700948,6.879306,6.784432,3.284535,3.696293,3.215814,4.362484,3.06044,4.161483,3.517051,3.045022,3.887623,3.047803,1.803198,1.757697,1.822164,1.833102,2.26538,6.449125,,5.497597,5.364041,0.133555,0.697611,0.178032,1.022244,5.244057,5.364645,-0.120587,0.888917,0.18329,1.088532,5.4507,5.370712,0.079988,2.057784,0.211551,1.10578,5.106544,5.362561,-0.256017,1.513556,0.236669,1.112053,5.164731,5.331521,-0.16679,2.011696,0.252038,1.115044
663,15.0,15.0,3.383691,2.982951,3.325332,2.844676,2.48667,2.988428,2.938639,2.41654,2.922406,2.442196,2.132306,2.614972,2.697903,2.958585,2.800375,5.003896,4.654916,4.758341,4.965203,3.09316,5.311545,4.284346,2.996619,4.990725,2.691784,2.19946,2.98522,3.287473,3.278253,3.043942,1.329486,,0.372345,0.127185,0.24516,0.722291,0.149079,1.004915,0.41825,0.129388,0.288863,0.836921,0.178989,1.065225,0.437241,0.115376,0.321865,0.871993,0.199539,1.083275,0.5167,0.103561,0.41314,1.111863,0.200907,1.089444,0.534953,0.101642,0.433311,1.174293,0.20133,1.09207
666,15.0,15.0,15.581179,15.74953,15.000254,15.161862,13.76634,15.179633,14.222828,13.529806,15.46786,13.630731,12.902294,11.07775,12.865241,10.398337,10.247584,18.453761,16.94847,17.241161,16.644312,17.881782,16.632828,15.47995,17.342118,15.85399,16.62776,14.388579,10.972987,9.633393,9.130531,8.4906,40.887985,,13.825972,12.161969,1.664003,5.790942,0.39531,1.020603,12.515573,12.121693,0.39388,2.668157,0.482646,1.09712,12.533357,12.138963,0.394394,2.604369,0.558974,1.101916,12.44967,12.107547,0.342123,2.493643,0.605704,1.099579,12.903058,12.159001,0.744057,4.037431,0.652671,1.096827
667,15.0,15.0,2.165304,2.506746,2.112377,2.184088,2.144296,2.247981,2.349905,2.364039,2.377464,2.319246,2.498284,2.467809,2.350907,2.281496,2.278692,3.007401,4.049427,2.740298,4.139592,1.097119,4.224603,3.856349,0.913111,4.187792,0.997985,0.933827,0.876089,0.532212,0.532278,0.532163,1.426154,,0.228478,0.162571,0.065907,0.19271,0.131933,0.996272,0.584096,0.166832,0.417265,1.482896,0.146329,1.05868,0.355175,0.173194,0.181982,0.450025,0.167315,1.076555,0.40882,0.177256,0.231564,0.627967,0.169619,1.084295,0.396557,0.174681,0.221877,0.579916,0.17367,1.088466
671,15.0,15.0,3.842476,3.646666,3.001121,2.790532,2.787846,2.721962,3.252827,2.296281,2.506202,2.509282,1.720948,1.486396,1.529072,1.478241,1.530891,3.95266,3.060074,3.783354,2.632035,3.382475,2.705674,3.150884,3.174802,2.976289,2.617759,1.024162,1.69292,1.171262,1.113438,1.167706,4.453902,,2.177719,1.475095,0.702624,2.307439,0.178485,1.055015,2.006573,1.483821,0.522752,1.834658,0.202021,1.113714,1.99051,1.481979,0.508532,1.84629,0.221754,1.12898,1.975102,1.482063,0.493038,1.773455,0.230061,1.13571,2.038903,1.484496,0.554407,2.026637,0.236335,1.138722
689,15.0,15.0,5.85021,5.395,5.940851,4.439748,5.80203,4.935937,4.874692,5.580164,5.411144,5.234916,4.954839,4.933624,4.196968,4.562923,4.856947,7.442252,6.503136,7.32727,6.419152,7.110682,6.37551,6.547812,6.589595,6.026043,6.802469,8.214378,6.54003,6.938664,5.569444,5.919106,1.489073,,0.202929,0.122906,0.080023,0.205244,0.147638,1.050707,0.244558,0.130554,0.114004,0.300652,0.161568,1.101255,0.27589,0.136857,0.139033,0.35943,0.179827,1.116773,0.343444,0.136732,0.206712,0.511965,0.189735,1.123134,0.397281,0.124864,0.272416,0.791268,0.19661,1.126482
694,15.0,15.0,2.358891,2.387839,2.323151,2.401629,2.201241,2.434206,2.34057,2.181976,2.50029,2.204181,2.15792,2.137108,2.124283,2.130102,2.129711,0.702981,0.893638,0.655578,0.767102,0.6369,0.894779,0.835344,0.615565,1.008454,0.63697,0.598656,0.590975,0.60675,0.585147,0.577831,1.689896,,2.358891,2.15792,0.200971,0.706692,0.16154,1.092888,2.387839,2.137108,0.250731,0.738217,0.191628,1.143948,2.401629,2.124283,0.277346,0.740191,0.193293,1.156006,2.434206,2.130102,0.304105,0.832209,0.187178,1.160451,2.50029,2.129711,0.370579,1.060221,0.204117,1.161866
698,15.0,15.0,2.820788,2.678831,2.885615,3.032466,2.714729,2.995982,2.595659,2.756535,2.562131,2.639812,2.898046,2.650777,3.084711,2.798037,2.41077,3.553612,3.523695,3.750132,3.890041,2.500216,3.959724,3.394113,2.514892,3.609129,2.272243,2.188542,1.141471,0.998449,1.230335,0.547206,3.113815,,0.620676,0.576057,0.044619,0.141807,0.094177,0.990509,0.632661,0.576481,0.05618,0.16629,0.109161,1.055477,0.634368,0.577291,0.057078,0.197298,0.114309,1.075796,0.638278,0.575265,0.063013,0.204164,0.118692,1.083028,0.643565,0.575732,0.067833,0.211822,0.122656,1.086311
702,15.0,15.0,1.761278,1.623435,1.726774,1.727571,1.607161,2.093693,1.506339,1.449199,1.847103,1.664058,1.578689,1.005664,1.551808,1.910325,1.440251,1.009046,1.220779,1.049911,1.458505,1.14106,1.716046,1.104846,0.29884,1.782907,1.031126,0.130604,0.169261,0.380487,0.638169,0.585368,3.214502,,1.10704,1.023258,0.083783,0.288309,0.167174,1.02794,1.114599,1.025224,0.089375,0.267656,0.186863,1.085616,1.184009,1.030826,0.153183,0.501919,0.187,1.102552,1.232321,1.034019,0.198302,0.681953,0.194979,1.10901,1.244831,1.038138,0.206693,0.649976,0.206591,1.112068
709,16.0,16.0,4.621358,4.51677,4.557372,4.909218,4.757654,4.770598,4.467937,4.553843,4.787201,4.754004,4.592716,4.293782,4.468055,4.520998,4.432595,5.502292,5.989386,5.596028,6.480783,4.831149,6.570523,5.617712,4.94425,6.993714,4.556194,4.447024,5.297693,5.387154,5.813962,5.971007,2.879116,,1.769584,1.594619,0.174965,0.657909,0.137038,1.024375,1.854857,1.614284,0.240574,1.101015,0.1823,1.090039,1.816979,1.61282,0.204159,1.317436,0.200934,1.107392,1.841522,1.633333,0.208189,1.134609,0.209264,1.113542,2.074644,1.643297,0.431347,1.678179,0.224451,1.116668
712,16.0,16.0,8.849265,8.902807,8.856368,9.116514,8.679925,9.505114,8.855127,8.840734,9.302607,8.827478,8.996303,8.458358,8.799361,8.625508,8.608571,4.118621,4.548584,4.321759,4.270558,3.751875,4.563014,3.863949,3.260293,4.612764,3.877767,3.839602,3.97179,3.981745,4.396055,3.984565,8.051258,,6.399515,6.349643,0.049872,0.192677,0.11864,0.994934,6.432952,6.346069,0.086883,0.287674,0.124974,1.070446,6.544041,6.34981,0.19423,0.713052,0.144363,1.093033,6.54616,6.354996,0.191163,0.716661,0.160462,1.10247,6.555369,6.351891,0.203479,0.74903,0.164352,1.1075
724,15.0,15.0,31.263299,29.660711,30.904136,31.05947,30.605397,30.760314,29.421061,30.229265,29.73262,31.264759,30.389254,28.855369,30.4337,29.631215,29.205541,36.71812,36.345707,35.749434,34.671899,36.244911,34.358961,35.187504,35.86943,34.651057,35.967648,36.248279,36.899461,34.558167,33.591631,33.206568,17.685985,,29.944863,30.181197,-0.236334,4.22887,1.663726,0.989436,30.433372,30.456202,-0.02283,4.022505,1.205042,1.049465,30.62665,30.172882,0.453768,4.975435,1.030168,1.055716,30.533045,30.093197,0.439848,5.182835,1.057449,1.055042,30.020603,29.918616,0.101987,5.718063,1.036119,1.055267
733,15.0,15.0,2.183321,2.350611,2.151148,2.344594,2.09029,2.304711,2.316368,2.089139,2.231601,2.092471,2.07769,2.067819,2.069744,2.075863,2.074119,1.077722,1.146303,1.039151,1.178459,0.788532,1.183067,1.095924,0.771333,1.18643,0.785738,0.744809,0.734382,0.746643,0.752877,0.741002,4.167974,,2.183321,2.07769,0.105631,0.445922,0.175001,1.031808,2.350611,2.067819,0.282792,1.0602,0.188832,1.089521,2.344594,2.069744,0.27485,1.034606,0.202831,1.107686,2.304711,2.075863,0.228848,0.846021,0.20502,1.113345,2.231601,2.074119,0.157481,0.55564,0.20772,1.115359
736,15.0,15.0,4.473565,4.808354,4.364488,4.902462,4.509873,4.598569,4.484941,4.366058,4.538888,4.122293,4.133448,4.793186,4.844708,4.253252,4.425634,5.287464,5.332396,5.290904,5.679506,4.619931,5.798308,5.315806,4.984352,5.370139,4.641732,4.44571,4.661791,4.649991,4.362577,4.219324,4.349537,,3.400683,3.364138,0.036545,0.228447,0.140699,1.02157,3.409686,3.357547,0.052139,0.27177,0.18448,1.085799,3.415795,3.372778,0.043017,0.292785,0.183065,1.105851,3.42184,3.362317,0.059523,0.379478,0.189983,1.11393,3.409329,3.349593,0.059736,0.37361,0.19237,1.118068
737,15.0,15.0,10.646558,11.376214,10.636834,11.849226,9.158729,12.898224,11.368052,9.352083,13.105158,9.207975,8.071404,10.416568,10.235563,12.401614,12.513799,9.755636,10.392978,9.578755,12.166045,7.341715,11.985158,9.940745,7.123716,12.552601,7.046488,6.485662,6.339343,9.099335,7.871903,9.43147,7.322944,,6.146223,3.476157,2.670066,5.441897,1.241167,0.9595,6.494825,5.292352,1.202473,5.236681,2.594957,1.014803,7.278497,5.276884,2.001613,6.019848,2.061585,1.030547,7.936805,7.098458,0.838347,6.032908,3.635033,1.036905,7.717876,6.97789,0.739986,5.108161,2.98511,1.039573
740,15.0,15.0,0.386972,0.378829,0.350412,0.557136,0.174358,0.614324,0.358958,0.159867,0.607831,0.147293,0.116272,0.127966,0.132694,0.133496,0.133659,1.834122,1.960362,1.776172,2.043075,1.112678,2.082304,1.839487,1.004571,2.186515,0.46194,0.129338,0.116065,0.105907,0.10621,0.114692,1.892815,,0.407706,0.122403,0.285303,0.892638,0.160183,1.011504,0.373617,0.132757,0.24086,0.659791,0.181746,1.076723,0.587641,0.141845,0.445797,1.296924,0.203648,1.097377,0.648883,0.142705,0.506178,1.503278,0.20508,1.105709,0.640786,0.142879,0.497908,1.388961,0.2067,1.109627
749,15.0,15.0,4.580467,5.33505,4.186891,4.988349,4.652648,5.026761,5.361457,3.667966,4.896857,3.769497,2.959699,4.720815,4.001089,4.551178,3.954058,5.586265,6.480227,4.973592,7.259428,3.559783,6.718552,6.080699,3.333205,6.880444,4.918294,2.697897,2.731087,4.02265,3.611614,4.002631,8.963122,,0.47502,0.334449,0.14057,0.527648,0.140641,1.05442,0.443567,0.338149,0.105417,0.346585,0.168129,1.108931,0.50508,0.328194,0.176886,0.62753,0.183756,1.124223,0.530122,0.339513,0.190609,0.674871,0.170556,1.130045,0.536,0.350104,0.185896,0.683324,0.175778,1.13265
750,30.0,30.0,8.381976,7.451971,7.929561,7.684004,7.43269,7.376142,6.977929,7.245681,7.734732,7.429002,7.061261,6.58228,6.710224,6.459661,6.572499,5.912024,5.958641,5.901863,5.404885,5.584606,5.016059,5.822816,5.291041,5.232694,5.392344,5.370821,5.26467,4.111561,3.21622,3.051966,8.72025,,7.489369,7.24578,0.243589,1.687084,0.644725,1.034564,6.980333,6.80497,0.175364,1.438109,0.58228,1.090434,7.260615,6.951794,0.308821,1.680719,0.459885,1.105534,6.925545,6.814729,0.110816,1.286247,0.457734,1.112075,7.218823,6.894272,0.324551,1.514397,0.593194,1.115565
763,15.0,15.0,2.433797,1.458436,1.983352,1.601115,2.029647,1.654935,1.219385,1.848308,1.824037,1.461902,1.458313,0.201514,0.900702,0.636471,0.489764,9.269993,9.123879,9.026569,8.68563,8.951943,8.769969,9.026123,8.48667,8.541934,8.481614,7.192398,8.408732,6.877098,7.171362,7.399484,2.130819,,0.232455,0.176144,0.056311,0.199592,0.124235,1.057659,0.313649,0.173042,0.140606,0.476054,0.138042,1.117184,0.33855,0.179969,0.158581,0.543887,0.149897,1.131108,0.389401,0.180193,0.209207,0.748243,0.155673,1.137475,0.545749,0.175695,0.370054,1.333089,0.160355,1.141132
765,16.0,16.0,0.476054,0.472516,0.419393,0.594893,0.404276,0.606479,0.40895,0.37355,0.66022,0.378094,0.343095,0.342582,0.334018,0.330999,0.332653,0.350207,0.381821,0.294096,0.428834,0.266613,0.491877,0.313302,0.246094,0.526764,0.247091,0.242878,0.245783,0.231452,0.236089,0.23634,2.671508,,0.476054,0.343095,0.132958,0.29986,0.146239,1.051749,0.472516,0.342582,0.129934,0.398532,0.184237,1.102918,0.594893,0.334018,0.260875,0.78089,0.200387,1.119565,0.606479,0.330999,0.27548,0.819969,0.200295,1.126381,0.66022,0.332653,0.327567,1.007298,0.206561,1.129707
774,15.0,15.0,9.168572,8.458328,8.075191,8.873016,8.352971,9.001501,7.643584,7.911771,10.33592,7.537372,7.6574,7.098862,7.536274,8.31734,8.670811,13.821929,9.799784,11.908419,7.992915,12.441181,7.955527,8.539661,11.612577,8.518924,11.754098,9.984084,5.147861,4.390029,4.663597,4.099564,15.02604,,4.361181,3.102384,1.258797,4.425558,2.19685,0.991095,3.338489,3.074555,0.263934,3.016075,2.170183,1.061695,3.974787,2.76846,1.206327,4.29247,1.726879,1.076654,3.517374,2.670856,0.846518,3.26584,1.108693,1.081679,3.489597,2.644358,0.845238,3.494269,1.319212,1.082605
784,15.0,15.0,9.727474,10.656052,9.108508,9.325057,9.986071,9.694733,10.495109,9.808507,9.655891,9.934957,10.278899,10.440731,9.860141,9.697279,9.216874,6.626533,8.294576,7.242706,7.689414,6.989335,7.369525,7.8044,6.73006,7.523326,5.885373,3.466574,8.301353,7.911055,7.657812,7.468768,6.950351,,0.368943,0.283485,0.085458,0.230213,0.164471,1.047602,0.493591,0.283907,0.209684,0.634017,0.176272,1.102162,0.67836,0.286972,0.391387,1.333648,0.191905,1.119369,0.673845,0.288596,0.385249,1.302312,0.189033,1.126019,0.68719,0.29093,0.39626,1.338903,0.194549,1.129264
802,16.0,16.0,10.556312,10.049227,10.005306,9.435951,9.46395,9.486599,9.780799,9.060879,9.32748,8.718533,8.719395,8.982063,8.794751,8.542455,8.67223,7.806641,7.93649,6.413586,7.794837,7.247262,7.98492,7.034315,6.896856,8.311455,6.80114,6.442838,5.990491,6.384058,6.577333,7.098429,9.025074,,9.698085,9.132521,0.565565,1.915507,0.178781,0.992709,9.769291,9.112041,0.657249,2.846197,0.20038,1.053155,9.468133,9.109043,0.35909,1.924367,0.211354,1.068881,9.510092,9.102511,0.407581,2.028407,0.213213,1.075923,9.203976,9.100405,0.103571,1.39747,0.221872,1.079933
807,15.0,15.0,6.993543,6.42156,6.716278,5.897727,6.361016,6.409651,5.911363,6.152724,6.144728,5.807339,5.787976,4.81201,4.091777,5.748662,4.939719,9.978692,7.595734,9.452994,7.625327,10.21005,7.646562,6.125392,9.718502,7.353548,9.233984,8.730188,4.973866,4.53076,5.797671,4.985346,20.834185,,3.760266,3.792449,-0.032183,1.950552,1.386656,1.024986,4.06815,4.25245,-0.184301,1.70792,0.911749,1.086116,3.971748,3.545832,0.425916,2.341545,1.025919,1.101664,4.04473,4.007193,0.037537,2.33167,1.181427,1.106687,4.050654,3.938883,0.111772,2.379044,1.322421,1.109498
814,15.0,15.0,9.498362,9.245968,9.472029,8.866516,9.252074,8.936429,9.175772,9.205718,8.974675,9.035877,9.298013,8.950717,8.837556,8.864053,8.80413,3.635378,3.875154,3.609397,3.961152,3.453053,3.942187,3.879706,3.484682,4.012468,3.149611,3.918669,3.918645,3.942554,3.759457,4.054016,14.608972,,6.715759,6.679346,0.036413,0.189595,0.1406,1.02736,6.600974,6.670874,-0.0699,0.749222,0.152152,1.094774,6.609574,6.671632,-0.062058,0.764948,0.159983,1.114566,6.687032,6.677538,0.009495,1.033584,0.174512,1.122518,6.688971,6.676346,0.012625,1.038057,0.167718,1.126521
815,15.0,15.0,1.500358,1.619915,1.452316,1.60358,1.031443,1.840091,1.371808,1.421229,1.686259,1.177867,0.649962,1.298683,1.0336,1.585896,1.360057,1.867846,2.524361,1.700852,2.183351,1.255818,2.104458,2.509371,1.205298,1.856749,1.017239,0.878744,0.987513,0.455816,0.233282,0.22663,3.607359,,0.259206,0.165625,0.09358,0.273707,0.159911,0.989335,0.327442,0.191023,0.136419,0.364695,0.193926,1.056813,0.334671,0.196428,0.138243,0.374875,0.199868,1.08071,0.42093,0.185615,0.235315,0.604557,0.207366,1.091988,0.432604,0.193116,0.239488,0.633019,0.214443,1.097333
823,15.0,15.0,8.390711,8.702147,8.306486,9.127036,7.974137,8.985761,8.480091,8.129247,9.029827,7.659266,7.456934,8.748939,8.366674,8.330936,8.213259,9.888201,10.278346,9.208343,10.446316,7.304253,10.82501,9.193919,6.605933,10.971365,7.109432,5.99763,6.279843,6.67323,7.066383,6.984304,6.116898,,3.494914,2.94454,0.550374,1.654157,0.142672,1.008998,3.755394,2.972772,0.782622,2.82586,0.166653,1.057782,3.923592,2.961463,0.96213,2.907784,0.194781,1.068697,3.905993,2.97588,0.930114,2.843792,0.198636,1.071767,3.924614,2.979261,0.945353,2.905251,0.197869,1.072588
824,15.0,15.0,6.226034,5.896283,5.281394,5.329275,4.373161,5.825011,5.21386,4.701108,5.860755,3.186347,1.991831,4.691913,3.677541,4.141739,3.40115,11.208959,7.499222,10.709184,7.149753,9.359645,7.88094,7.943577,9.702283,7.90839,8.570759,9.874158,3.213523,2.407695,4.002077,4.36119,15.304908,,1.189766,0.658652,0.531114,1.538551,0.285017,1.008207,1.203836,0.672101,0.531734,1.393012,0.313955,1.083468,1.237119,0.660958,0.576161,1.429359,0.352388,1.102133,1.343233,0.635532,0.707702,1.741832,0.385434,1.107772,1.312729,0.593807,0.718923,1.822008,0.396769,1.110065
831,15.0,15.0,21.924481,21.852292,21.647341,21.545553,21.546643,21.661207,21.488652,21.543584,21.634781,21.740274,21.299431,20.92514,21.134266,21.106904,20.914521,42.83307,42.468524,42.878597,42.567815,43.43184,42.536329,42.227348,43.497236,42.350567,43.372092,42.994237,42.497538,41.820004,42.348033,42.349856,21.542125,,22.368538,22.338233,0.030305,0.199956,0.128114,1.015925,22.330813,22.324713,0.0061,0.49988,0.15384,1.076315,22.33176,22.315438,0.016321,0.513518,0.174812,1.09522,22.350426,22.32498,0.025446,0.561572,0.178736,1.103087,22.363265,22.324836,0.038429,0.606601,0.175942,1.107279
840,15.0,15.0,1.439401,1.378591,1.193076,1.471261,1.088423,1.527984,1.235408,0.8213,1.565805,0.669795,0.456422,0.616047,0.500252,0.594416,0.56171,1.12916,1.668758,1.163892,2.070946,0.869406,2.573178,1.586304,0.670392,2.389596,0.684212,0.771777,0.532455,0.586186,0.888008,1.031002,2.389767,,0.683942,0.466433,0.217509,0.735772,0.291021,1.054665,0.702503,0.486908,0.215595,0.712269,0.315874,1.112027,0.905888,0.484402,0.421485,1.310824,0.287422,1.125728,0.969801,0.484641,0.48516,1.611526,0.286181,1.130406,0.870544,0.489422,0.381122,1.297841,0.268419,1.132422
841,15.0,15.0,9.18585,9.245785,9.115699,9.172955,8.754715,9.316378,9.262026,9.058247,9.288693,8.797133,8.435319,8.957632,9.37318,9.452608,9.395921,4.245853,4.653894,4.365066,4.647423,3.58305,4.967593,4.593877,3.288905,5.056171,3.425221,3.092138,3.316685,3.313856,3.238739,3.310235,10.099029,,8.294567,8.259556,0.035011,0.175024,0.105131,0.997844,8.30578,8.269724,0.036056,0.205701,0.129436,1.059947,8.306337,8.267367,0.03897,0.215153,0.142141,1.076481,8.307772,8.258542,0.04923,0.22347,0.13736,1.084076,8.311443,8.267389,0.044054,0.230078,0.140162,1.088033
843,15.0,15.0,0.940166,1.131846,0.880689,1.142183,0.531925,0.928408,1.024301,0.435332,0.984218,0.431558,0.419124,0.401553,0.404658,0.414255,0.429808,1.963809,2.689506,1.803691,2.612118,1.659823,2.824649,2.571567,1.267572,2.972161,0.742065,0.245189,0.270233,0.230705,0.258655,0.270864,3.896345,,0.762779,0.450246,0.312534,1.147714,0.113247,0.979433,0.957086,0.432747,0.524339,2.097102,0.145455,1.056402,0.975206,0.431269,0.543937,2.120642,0.147832,1.079383,0.624576,0.435556,0.189019,0.707407,0.149157,1.08861,0.684717,0.448948,0.235769,0.944457,0.149031,1.093186
847,15.0,15.0,0.301233,0.410916,0.260964,0.353088,0.218991,0.39571,0.359361,0.226407,0.399023,0.207836,0.185095,0.178056,0.169094,0.166248,0.1773,0.495703,0.644657,0.439794,0.668464,0.179985,0.742424,0.578412,0.162699,0.624251,0.176298,0.140583,0.134813,0.137057,0.134787,0.139139,1.51778,,0.296489,0.190958,0.105531,0.284881,0.150333,1.012758,0.322538,0.183695,0.138842,0.373762,0.163718,1.080815,0.361242,0.172036,0.189206,0.507217,0.185141,1.100386,0.403705,0.168248,0.235458,0.656766,0.195346,1.108609,0.407371,0.180089,0.227282,0.66229,0.201965,1.112565
859,15.0,15.0,1.623417,1.638643,1.604228,1.649228,1.587628,1.654369,1.610837,1.586294,1.705894,1.581479,1.57464,1.577964,1.580148,1.577286,1.578198,4.922653,6.232215,4.491378,6.491716,3.817974,6.264267,5.680533,3.781815,6.338155,3.474552,3.886478,3.914891,3.921237,3.890444,3.887187,2.663016,,1.623417,1.57464,0.048777,0.17311,0.099615,1.00884,1.638643,1.577964,0.060679,0.203603,0.116568,1.067003,1.649228,1.580148,0.06908,0.218634,0.12285,1.082389,1.654369,1.577286,0.077083,0.223818,0.130691,1.088687,1.705894,1.578198,0.127697,0.423157,0.131476,1.091898
864,15.0,15.0,4.180668,4.34615,3.955712,4.628938,3.611994,4.433125,4.131365,3.651913,4.214817,3.628152,3.394934,3.892514,4.520531,4.392294,4.067944,6.171682,5.990659,5.671002,5.837261,5.108483,5.688977,5.632277,4.562657,5.599876,5.233035,5.124959,3.097828,3.322174,2.875809,2.870435,9.578071,,0.159275,0.077186,0.082089,0.176689,0.103532,1.017296,0.184103,0.090112,0.093991,0.207789,0.116277,1.076914,0.195906,0.101575,0.094331,0.219433,0.130968,1.096561,0.204782,0.106295,0.098487,0.229254,0.136769,1.105401,0.220677,0.103481,0.117196,0.27897,0.136973,1.109867
865,15.0,15.0,5.514549,4.89291,5.463218,4.744636,4.743745,4.509538,4.834994,5.312245,4.73056,5.242081,4.927214,4.837264,4.623746,4.112948,4.118371,4.114135,3.678602,3.891225,3.604864,2.652749,3.999528,2.754318,3.558944,4.050098,2.951319,0.835949,0.846516,1.865946,1.862049,1.822872,7.453413,,0.39746,0.404853,-0.007393,0.247336,0.152539,1.051104,0.408004,0.401969,0.006034,0.282396,0.181406,1.109141,0.412665,0.415728,-0.003063,0.291603,0.180356,1.122905,0.418002,0.415046,0.002956,0.299064,0.182621,1.1276,0.419853,0.417784,0.002069,0.304183,0.187233,1.129898
866,15.0,15.0,3.132863,3.178353,3.10971,3.217086,3.102573,3.222022,3.145072,3.098689,3.270152,3.089032,3.097322,3.107795,3.112112,3.11793,3.119769,2.49478,2.77905,2.261873,2.916379,1.476107,3.221283,2.611112,1.475858,3.310431,1.461172,1.464361,1.471005,1.485189,1.491102,1.498735,3.089061,,3.132863,3.097322,0.035541,0.19582,0.124323,1.011019,3.178353,3.107795,0.070558,0.322741,0.14514,1.070317,3.217086,3.112112,0.104975,0.45152,0.149391,1.087404,3.222022,3.11793,0.104092,0.451212,0.156958,1.093996,3.270152,3.119769,0.150383,0.629963,0.163792,1.09718
868,15.0,15.0,3.003419,2.492629,2.732371,2.210488,1.889145,2.474311,2.170457,1.824503,2.753654,1.796404,1.449747,1.363967,0.500849,0.724642,0.305712,6.96168,4.330829,6.78251,4.497217,5.72274,5.041444,3.823502,5.442058,5.304869,5.834941,6.812686,1.703782,2.287098,2.513469,2.325181,8.425021,,0.814337,0.164571,0.649766,1.610272,0.260777,1.04668,0.715097,0.198866,0.516231,1.258582,0.30842,1.104204,0.792618,0.181702,0.610915,1.533013,0.298488,1.113507,0.997179,0.179108,0.818071,1.97962,0.315739,1.115988,1.295115,0.204245,1.090869,2.943489,0.353906,1.116893
870,15.0,15.0,4.944797,5.07668,4.805216,5.241933,4.713902,4.969595,5.058519,4.77856,4.974888,4.894189,4.792104,4.975352,4.968156,4.91807,4.989275,3.737508,4.692051,3.697098,4.957055,1.914114,4.869168,4.636061,2.258403,4.993775,2.135922,1.815396,3.167112,3.143849,3.129367,2.88173,4.628028,,2.575437,2.489825,0.085612,0.208823,0.1153,1.010409,2.63073,2.491806,0.138923,0.349843,0.150343,1.066806,2.699377,2.484933,0.214443,0.509846,0.151757,1.086467,2.713986,2.504023,0.209963,0.505485,0.167958,1.094416,2.71243,2.50756,0.204869,0.482068,0.182086,1.098419
871,15.0,15.0,2.531862,2.91526,2.355141,3.189312,2.371569,3.184696,2.769517,2.523774,2.993269,2.205935,2.523583,2.890102,3.343678,3.499741,3.016916,3.188428,4.636791,3.046732,5.415343,1.360329,5.670763,4.311207,1.662105,5.779023,1.551561,1.071565,2.017193,2.894104,2.964902,2.972846,1.651511,,0.19247,0.126782,0.065688,0.189489,0.118809,1.007093,0.208885,0.133489,0.075396,0.215999,0.134864,1.063448,0.221789,0.136808,0.084982,0.235175,0.147823,1.080803,0.240524,0.138479,0.102045,0.281312,0.155793,1.088198,0.246976,0.12191,0.125066,0.313974,0.158721,1.091868
874,15.0,15.0,0.321501,0.431264,0.255911,0.628926,0.179064,0.718758,0.364605,0.158114,0.700949,0.165464,0.117737,0.135309,0.131727,0.140479,0.139752,0.280209,0.338064,0.208517,0.411721,0.18055,0.466996,0.234349,0.150541,0.510201,0.164359,0.101258,0.103939,0.113238,0.116624,0.121243,13.790393,,0.33679,0.116051,0.220739,0.515615,0.199815,1.062312,0.458433,0.137669,0.320765,0.824215,0.237903,1.112701,0.607655,0.134662,0.472993,1.225894,0.246419,1.127472,0.705542,0.144702,0.56084,1.678597,0.271002,1.132334,0.68371,0.142699,0.541011,1.650787,0.270274,1.134464
879,15.0,15.0,7.335444,7.011748,7.228441,7.097814,7.213492,7.087689,6.127843,6.528488,6.913411,7.039347,6.669218,6.375585,6.62188,6.638745,6.320525,5.758477,5.978962,5.246834,6.884496,5.097872,6.823221,5.510058,4.486933,6.932302,4.085567,3.667009,3.814495,4.765014,4.9982,4.825662,9.093741,,1.763646,1.61276,0.150886,0.58428,0.181372,1.03847,1.854498,1.639853,0.214645,1.31992,0.216279,1.092419,1.877006,1.628561,0.248445,1.334177,0.225628,1.106312,1.802888,1.633112,0.169776,1.043106,0.218839,1.110899,1.801171,1.633569,0.167603,1.036413,0.229781,1.11274
885,15.0,15.0,49.958775,50.288109,49.837114,50.298735,49.771278,50.054377,50.272058,49.745577,50.458944,49.772597,49.416066,49.598995,49.423275,49.3085,49.433061,64.797003,65.063489,64.687961,64.893312,64.613406,65.298701,64.94041,64.739064,65.719186,64.610915,65.141125,64.691309,64.638657,64.643688,65.017269,54.630929,,51.804304,51.785822,0.018483,0.229323,0.166464,0.9898,51.816269,51.809551,0.006718,0.265591,0.175447,1.053908,52.039088,51.816324,0.222764,1.527684,0.188902,1.071397,52.105086,51.808008,0.297078,1.67662,0.196943,1.078668,52.041712,51.807889,0.233823,1.441304,0.197203,1.082546
899,15.0,15.0,0.529443,0.867579,0.460821,1.000955,0.409577,0.916186,0.81291,0.404927,0.970432,0.422114,0.410319,0.418002,0.423044,0.417857,0.409293,0.321845,0.349148,0.278545,0.489726,0.223691,0.633638,0.298801,0.234369,0.762631,0.219844,0.22086,0.228887,0.237934,0.241496,0.238533,2.044397,,0.529443,0.410319,0.119124,0.52675,0.147074,1.059476,0.867579,0.418002,0.449577,1.743929,0.193933,1.110553,1.000955,0.423044,0.577911,2.137653,0.201797,1.125442,0.916186,0.417857,0.498328,1.703635,0.193774,1.131374,0.970432,0.409293,0.56114,1.903224,0.211244,1.13425
904,15.0,15.0,9.349872,8.4507,7.867436,7.69172,7.242911,7.214771,7.271834,6.282547,6.900316,6.805747,4.846077,4.92829,4.011404,5.427506,4.78241,15.21343,11.002983,14.315754,11.077644,14.196957,10.464898,10.106513,12.832209,9.56459,12.876149,13.903107,5.497616,5.359226,4.84937,4.137462,6.850195,,0.755119,0.373115,0.382004,1.3612,0.178012,1.064037,0.887167,0.34289,0.544277,1.431317,0.185386,1.115842,0.772786,0.352828,0.419957,1.384496,0.195509,1.13063,0.673047,0.347846,0.325201,0.928568,0.199736,1.135788,0.809225,0.360729,0.448496,1.488359,0.206065,1.137927
914,15.0,15.0,6.623858,6.864428,5.612306,7.105493,5.765936,6.659553,6.058317,5.20574,6.428528,5.176884,4.663308,5.445272,5.108115,5.679615,5.278922,8.07847,8.978713,6.528406,8.710703,4.995734,8.252112,8.02924,4.484108,8.133751,5.663699,2.855236,4.55485,3.73209,3.122262,2.872482,4.398999,,0.985351,0.907338,0.078013,0.493013,0.186911,1.005818,1.07084,0.876296,0.194543,0.904986,0.204459,1.061574,1.068109,0.87361,0.194499,0.900823,0.202706,1.077628,1.016858,0.888245,0.128613,0.69742,0.218986,1.08415,1.020512,0.877418,0.143093,0.703739,0.207703,1.087318
920,15.0,15.0,11.633067,11.721958,11.612441,11.693206,11.616598,11.728959,11.47262,11.60857,11.741517,11.617672,11.614915,11.61071,11.600841,11.608279,11.60218,3.327768,3.352117,3.307501,3.391412,3.321914,3.48429,3.32006,3.306786,3.623615,3.311168,3.294678,3.297986,3.296091,3.286124,3.27916,12.941853,,11.633067,11.614915,0.018152,0.185484,0.12794,1.010115,11.721958,11.61071,0.111249,1.415506,0.14344,1.072432,11.693206,11.600841,0.092365,0.412522,0.146141,1.094296,11.728959,11.608279,0.12068,0.546051,0.149464,1.104235,11.741517,11.60218,0.139337,0.624933,0.151945,1.109754
922,15.0,15.0,5.209833,4.953146,4.816625,5.04521,4.529168,5.249866,4.777154,4.953204,5.286644,4.385492,4.161476,4.66526,4.779824,4.87166,5.185255,7.463268,7.629833,6.834312,6.548001,4.856607,7.27429,7.676241,4.289026,7.435661,2.852359,2.421918,2.540148,2.362888,2.16668,2.611663,8.030467,,0.237123,0.194833,0.04229,0.221659,0.14447,0.996712,0.365575,0.190501,0.175074,0.616535,0.177692,1.055622,0.411329,0.196596,0.214733,0.70182,0.189254,1.069645,0.384744,0.192558,0.192186,0.642922,0.199802,1.075585,0.490204,0.207279,0.282924,0.868635,0.196661,1.078446
925,15.0,15.0,1.496248,1.734605,1.474189,1.860729,1.427553,1.888631,1.693516,1.417176,1.829758,1.436032,1.404542,1.437473,1.443055,1.465496,1.478086,0.976741,1.145644,0.904165,1.291964,0.62337,1.493208,1.064347,0.591745,1.604764,0.612008,0.568742,0.585433,0.573808,0.608963,0.618706,8.974938,,1.524804,1.418233,0.106571,0.384699,0.213073,1.039249,1.761121,1.453548,0.307573,1.187282,0.263181,1.089525,1.892896,1.464227,0.428669,1.424357,0.280128,1.100059,1.867436,1.483333,0.384103,1.278213,0.299562,1.102421,1.800102,1.499018,0.301084,1.121018,0.299292,1.102752
931,15.0,15.0,1.043729,1.233522,1.013524,1.20069,0.989468,1.316006,1.180422,0.972168,1.500504,0.980702,0.950712,0.962375,0.957791,0.940154,0.943862,1.001642,0.9857,0.943046,1.091814,0.718984,1.207557,0.917918,0.713196,1.187786,0.697068,0.694849,0.685041,0.68777,0.76577,0.763567,2.00969,,1.043729,0.950712,0.093017,0.297313,0.151228,1.072732,1.233522,0.962375,0.271147,0.74029,0.170155,1.122894,1.20069,0.957791,0.242899,0.743387,0.172031,1.135092,1.316006,0.940154,0.375853,1.084039,0.19106,1.139761,1.500504,0.943862,0.556641,1.516862,0.202621,1.142338
936,15.0,15.0,0.979559,1.008445,0.941018,1.124506,0.906717,1.11526,0.950184,0.8762,1.164669,0.872414,0.859092,0.864276,0.855344,0.854888,0.840304,0.734051,1.062315,0.674331,1.328765,0.404818,1.37692,0.994936,0.362866,1.400903,0.357701,0.3422,0.3347,0.330246,0.334494,0.331527,0.956087,,1.027235,0.900096,0.127138,0.500676,0.195984,1.037596,1.058963,0.907438,0.151525,0.549266,0.233418,1.094772,1.179683,0.897947,0.281736,0.915733,0.249125,1.108284,1.169595,0.898076,0.271519,0.83497,0.285816,1.113472,1.223227,0.882531,0.340696,1.086345,0.266171,1.116001
943,15.0,15.0,6.236835,6.753517,5.992598,6.842219,5.922731,6.470897,6.570407,6.011679,6.489945,6.187846,6.635455,7.097242,7.176857,5.848778,6.023027,5.280542,5.287931,5.138619,5.970127,4.985662,6.118147,4.498814,4.869231,6.169041,4.786143,5.107713,4.029666,4.818477,4.706288,4.937854,6.969344,,2.250706,2.179329,0.071377,0.172177,0.093572,0.972514,2.274099,2.185516,0.088582,0.202083,0.122047,1.045436,2.279577,2.191477,0.088099,0.211594,0.126057,1.06901,2.285306,2.196098,0.089208,0.219892,0.129635,1.080385,2.284513,2.19346,0.091053,0.220961,0.129256,1.086383
945,15.0,15.0,5.539012,6.329669,5.345504,6.594282,5.295337,6.76205,6.072752,4.907846,6.301199,4.238638,3.871227,4.620709,5.794551,6.001811,5.071506,9.246464,9.564025,8.871697,9.750835,6.013272,9.375063,9.088567,7.823502,9.702163,6.198592,7.052909,5.341641,5.41556,5.56562,5.81896,8.301354,,1.250477,0.24978,1.000697,1.758197,0.221458,1.005849,1.548114,0.241125,1.306988,2.585398,0.236269,1.055237,1.673579,0.714299,0.95928,2.58927,0.685827,1.068618,1.690237,0.718838,0.971399,2.630613,0.69353,1.073209,1.691762,0.709664,0.982098,2.629274,0.700319,1.075044
956,15.0,15.0,4.033352,4.490458,3.866002,4.583819,3.825673,4.911288,4.144286,3.835901,4.733619,3.701535,4.113336,4.848875,4.825106,4.934081,4.889179,7.273868,8.132092,7.094317,8.467337,5.689772,8.310035,7.434612,5.414356,8.119569,4.472633,4.470687,3.954644,4.008073,4.405422,4.224874,9.277521,,3.005487,3.181587,-0.1761,1.409351,0.649893,0.963693,3.233987,3.419943,-0.185957,1.753421,0.454857,1.024907,3.190848,3.252104,-0.061256,1.47375,0.551958,1.041833,3.472037,3.442058,0.029979,1.335018,0.450954,1.048237,3.347895,3.358267,-0.010372,1.312753,0.488198,1.051162
971,15.0,15.0,4.945943,4.529667,4.667955,4.445583,4.238305,4.519476,4.287154,3.910293,4.637241,3.791512,3.564987,3.732293,3.773107,3.794851,3.776875,5.844974,5.541733,5.329724,5.507685,3.318935,5.641698,4.658318,3.609267,5.748777,3.394907,3.564118,2.153044,2.035944,1.901879,1.882172,6.827258,,1.657218,1.57133,0.085888,0.276696,0.142052,1.027527,1.649754,1.589241,0.060513,0.233958,0.145006,1.074579,1.659321,1.58434,0.074982,0.251073,0.154507,1.09071,1.725844,1.593681,0.132163,0.447171,0.157101,1.097394,1.746654,1.599915,0.146738,0.446248,0.160312,1.100584
972,15.0,15.0,10.666361,11.200873,10.421388,11.1013,10.420822,11.330981,11.011562,10.207518,10.927395,10.006544,10.637062,10.691747,10.658445,10.996786,10.723863,6.355116,6.860204,6.366245,6.930497,6.045764,6.87713,6.959859,6.020491,6.91431,6.057519,6.234789,6.685625,6.769876,6.583595,6.7751,9.947577,,6.711168,6.583095,0.128073,0.361442,0.165323,1.012023,6.876672,6.596488,0.280185,1.035961,0.200549,1.070554,6.898134,6.595924,0.30221,1.020528,0.203511,1.088227,6.860412,6.595545,0.264867,0.914477,0.206464,1.095399,6.886157,6.61154,0.274617,0.933988,0.209529,1.098731
973,30.0,30.0,4.786921,3.704786,4.589557,3.950287,4.126086,3.537386,3.305884,4.178836,3.714229,3.960086,3.336384,2.398894,2.63662,2.728022,3.075258,5.774082,5.566613,5.910428,5.483264,4.786289,5.667541,5.034656,5.018455,5.714208,4.890798,4.199329,1.770614,1.697583,1.589935,2.03222,23.584529,,0.580377,0.454068,0.126309,0.508152,0.162035,1.010141,0.634186,0.460172,0.174014,0.651778,0.204916,1.071308,0.734845,0.466487,0.268358,0.984681,0.214542,1.085947,0.725039,0.477423,0.247617,0.859842,0.220558,1.091046,0.765902,0.47648,0.289422,1.039359,0.225506,1.093447
984,15.0,15.0,7.020414,7.091525,6.991389,7.154921,6.966121,7.253882,7.043426,6.973372,7.296764,6.952486,6.929877,6.940006,6.929349,6.948704,6.968265,5.38902,5.915211,5.192129,6.097197,4.716698,6.229453,5.76007,4.691307,6.314139,4.682826,4.656352,4.656862,4.660789,4.667657,4.693802,7.135895,,7.020414,6.929877,0.090537,0.241486,0.131378,1.004745,7.091525,6.940006,0.151518,0.411335,0.152547,1.071093,7.154921,6.929349,0.225572,0.528045,0.184465,1.088561,7.253882,6.948704,0.305178,0.616794,0.218612,1.095278,7.296764,6.968265,0.328498,0.631838,0.265832,1.098508
986,16.0,16.0,4.768396,4.92265,4.617264,4.809064,4.350379,4.732605,4.925395,4.119948,5.04137,4.351313,4.444572,4.198318,4.366732,4.408425,4.941748,2.42842,3.870531,2.132485,3.777448,1.994923,4.004754,3.560048,2.047287,4.039742,1.404715,1.43355,3.092568,3.254756,3.151796,3.459452,4.405715,,2.787916,2.728591,0.059325,0.2122,0.140063,1.066597,2.914241,2.711638,0.202603,0.688409,0.157127,1.128678,3.00052,2.718529,0.281991,0.985683,0.164563,1.145785,3.03035,2.708782,0.321569,1.101371,0.179001,1.152525,3.021468,2.707982,0.313486,1.05023,0.187415,1.156049
988,16.0,16.0,4.875533,5.672344,4.741345,5.657675,4.858091,5.442133,5.827011,4.939311,5.541091,4.962116,4.650748,5.619352,5.040118,5.172989,5.059634,6.441738,5.735635,6.01804,5.630262,5.631062,5.614352,5.854448,6.089097,5.560011,5.712427,5.887387,5.515265,5.213814,5.13241,5.13515,35.744614,,1.164201,1.110743,0.053458,0.201995,0.134779,1.031145,1.185247,1.108919,0.076328,0.265327,0.150522,1.088402,1.216452,1.111378,0.105075,0.34088,0.161336,1.103894,1.352943,1.123047,0.229896,0.814363,0.182844,1.109382,1.427336,1.123989,0.303347,1.109472,0.182731,1.111826
989,15.0,15.0,6.746058,7.108466,6.586006,7.093958,6.390149,6.912306,6.892012,6.415184,7.013231,6.708769,6.947025,6.972214,6.666642,6.560428,6.6986,2.884259,3.499028,1.909435,3.441006,2.092822,3.472397,2.980369,1.914818,3.323868,2.151066,1.574856,3.260239,3.265493,3.046295,3.047276,8.476619,,6.171655,5.926401,0.245254,1.05457,0.178454,1.058691,6.158289,5.91931,0.238978,1.1653,0.204798,1.123723,6.442601,5.908512,0.534089,2.140058,0.220828,1.138126,6.369336,5.894314,0.475023,2.404208,0.220967,1.142574,6.303214,5.896559,0.406655,1.562342,0.222678,1.144111
996,15.0,15.0,0.81372,0.838284,0.774909,0.857515,0.766219,1.002362,0.784085,0.757356,0.969306,0.761032,0.746191,0.749406,0.74996,0.750509,0.740586,0.226912,0.266366,0.172131,0.28537,0.173008,0.320645,0.206263,0.15845,0.318125,0.169522,0.140615,0.14758,0.146902,0.149089,0.154347,14.213421,,0.81372,0.746191,0.067529,0.217358,0.143277,1.050672,0.838284,0.749406,0.088879,0.267821,0.15976,1.103403,0.857515,0.74996,0.107556,0.314783,0.172848,1.118411,1.002362,0.750509,0.251853,0.865791,0.175427,1.124519,0.969306,0.740586,0.228719,0.726557,0.18301,1.127401
997,15.0,15.0,1.827277,1.46544,1.583096,2.036954,1.059747,2.189035,1.330379,1.282538,2.322092,1.101554,0.681516,0.601088,0.729835,1.374308,1.042044,5.496894,6.447593,5.293086,6.544573,2.256712,6.751191,6.173283,2.25828,6.629743,1.217782,0.937155,1.480217,2.284294,2.295858,2.237988,5.121687,,0.522013,0.39267,0.129343,0.507888,0.184279,0.97903,0.587914,0.431195,0.156719,0.54509,0.223492,1.041545,0.84972,0.445506,0.404214,1.290566,0.211075,1.060412,0.997538,0.455162,0.542376,1.631195,0.205807,1.067926,0.907604,0.443018,0.464586,1.585176,0.230122,1.071511
998,16.0,16.0,7.157699,7.268203,6.929005,6.913521,6.944902,6.283858,7.168135,7.11387,6.583323,6.850343,7.449728,6.937103,6.576506,6.528537,6.611826,6.59611,6.834531,6.325294,6.705639,5.428723,6.982651,6.720329,5.908346,7.018817,5.36486,5.525177,5.276677,5.013182,4.785079,4.887594,7.001235,,2.612441,2.548426,0.064016,0.215501,0.097205,0.976078,2.611439,2.545969,0.06547,0.188338,0.106911,1.036802,2.620779,2.541958,0.078821,0.207005,0.117574,1.055214,2.625312,2.549701,0.075611,0.212344,0.127139,1.062036,2.626781,2.547718,0.079063,0.217072,0.130147,1.064853
1001,15.0,15.0,1.161035,1.546303,1.161774,1.708388,0.765962,1.430361,1.482202,0.288535,1.948391,0.287138,0.292609,0.273766,0.351171,0.292764,0.293028,2.921809,3.890684,2.789067,3.971768,0.610337,3.77164,3.771903,0.957321,3.739428,0.458336,0.302254,0.350856,0.364969,0.324915,0.318941,2.11881,,0.788086,0.201008,0.587078,2.323004,0.154813,1.026922,0.494543,0.202791,0.291752,0.754444,0.19952,1.086685,0.724525,0.232335,0.49219,1.320497,0.215759,1.102349,0.571624,0.210162,0.361462,1.015589,0.217666,1.107848,0.807231,0.24099,0.566241,1.574479,0.222618,1.110284
1004,15.0,15.0,1.164104,1.366331,0.880819,2.114929,0.759165,1.901685,1.218431,0.927337,2.032694,0.913598,0.70343,0.99906,1.437139,1.397932,1.396324,2.66119,2.817038,2.643221,2.798224,2.947451,2.638825,2.724304,2.487759,2.645583,1.232289,0.61896,0.859458,1.305012,1.853332,1.116128,14.191937,,0.153747,0.069795,0.083953,0.16727,0.110123,0.966516,0.167317,0.07134,0.095977,0.193207,0.120181,1.026029,0.174931,0.06619,0.108741,0.205879,0.136767,1.044839,0.179149,0.072973,0.106176,0.210287,0.137802,1.053059,0.182584,0.071727,0.110857,0.21862,0.131108,1.05785
1005,15.0,15.0,4.764316,4.992454,4.73269,4.862225,4.770402,5.40948,4.944347,4.583663,5.436434,4.583238,4.570495,4.54085,4.673023,4.741312,4.890522,7.51729,7.122489,7.407759,7.195364,6.671488,7.409304,6.54342,6.774012,7.333626,6.695085,6.721807,6.124851,6.293544,6.249938,6.246566,6.300286,,3.47377,3.388136,0.085634,0.205098,0.139766,0.999315,3.504143,3.393991,0.110152,0.285365,0.14194,1.065604,3.499637,3.391099,0.108537,0.410099,0.167069,1.082102,3.778251,3.390924,0.387326,1.489778,0.169659,1.088604,3.734215,3.388649,0.345566,1.247657,0.182999,1.0918
1006,15.0,15.0,9.309725,9.394177,9.064185,8.561742,8.747604,9.139519,9.186222,9.276841,8.970935,8.69272,9.201997,8.695092,8.757248,8.950432,8.782466,11.884499,11.575238,11.285798,11.512636,9.311768,11.240426,10.185837,9.044459,10.992907,7.220593,6.124015,5.71252,6.885652,5.405338,6.293697,7.287892,,0.432755,0.206962,0.225793,0.825728,0.17607,0.995466,0.403626,0.215881,0.187745,0.542879,0.156476,1.050122,0.415766,0.235035,0.180731,0.51622,0.188839,1.066288,0.481631,0.233888,0.247743,0.603036,0.201078,1.073048,0.49864,0.238151,0.260489,0.631284,0.207093,1.076346
1008,15.0,15.0,5.399685,4.888586,5.238769,5.432465,4.343007,5.05986,4.777832,4.605097,5.069467,4.207029,4.562871,4.252551,4.455267,4.648531,4.622816,5.87406,5.182272,6.158596,4.478571,5.200583,4.862564,5.103713,5.071737,4.571212,4.362653,5.340312,3.487602,2.996813,2.999728,2.424435,4.567256,,1.038865,0.785353,0.253512,1.070198,0.166453,1.026319,1.02409,0.776165,0.247925,0.967477,0.202215,1.099699,0.860097,0.763698,0.096399,0.653251,0.224477,1.113844,0.895228,0.761939,0.133288,0.803636,0.210655,1.11899,0.921078,0.754249,0.166829,0.899948,0.211355,1.121157
1009,15.0,15.0,6.092526,6.001305,5.9376,5.362044,6.454449,5.387426,6.012159,6.224748,5.840561,6.503323,6.807909,6.256465,5.51102,5.51645,5.864616,5.944585,6.057153,5.352499,5.670923,4.007989,5.738022,5.330786,3.939802,5.772047,4.106846,2.735839,1.397878,0.931151,0.801918,0.601939,3.680519,,0.133039,0.064502,0.068537,0.151421,0.096064,0.978563,0.356506,0.051621,0.304885,0.923783,0.118563,1.031863,0.358291,0.052324,0.305967,0.896122,0.133496,1.048597,0.365251,0.056161,0.30909,0.9066,0.14071,1.056464,0.443327,0.054379,0.388949,1.2111,0.147691,1.061026
1010,15.0,15.0,2.596089,2.245684,1.908036,2.779809,1.681956,2.536412,1.837655,1.702055,2.902116,1.594291,1.620693,1.254618,1.946244,1.448991,1.446656,3.282093,3.21453,3.08681,3.180414,2.936527,3.43848,2.838841,2.143579,3.373787,2.905507,2.508844,1.230585,0.676935,0.569607,0.557329,2.283044,,1.417332,1.267058,0.150274,0.829687,0.203971,1.007329,1.564406,0.924718,0.639688,1.074047,0.629664,1.068051,1.578349,0.952151,0.626198,1.110741,0.638224,1.087692,1.573458,0.963272,0.610185,1.099591,0.6537,1.094892,1.586353,0.967221,0.619132,1.065699,0.667718,1.097954
1012,15.0,15.0,0.307264,0.336743,0.268782,0.347981,0.259543,0.356896,0.288616,0.252996,0.356982,0.239849,0.213426,0.22616,0.230984,0.237708,0.232667,0.819984,0.855571,0.781251,0.860699,0.778689,0.871396,0.817558,0.77027,0.890242,0.747501,0.742256,0.747005,0.744702,0.751622,0.758663,0.774848,,0.307264,0.213426,0.093838,0.212438,0.149693,1.024474,0.336743,0.22616,0.110583,0.255309,0.157576,1.088703,0.347981,0.230984,0.116997,0.27541,0.160065,1.105439,0.356896,0.237708,0.119189,0.288917,0.170299,1.112522,0.356982,0.232667,0.124315,0.282384,0.174626,1.116379
1014,16.0,16.0,12.527615,13.092415,12.201849,13.419175,12.589299,13.211258,13.05836,12.506158,13.258618,12.588882,12.648668,13.040225,13.097711,13.075986,13.273688,14.984837,15.012155,14.783457,14.581667,14.852174,14.558695,14.899409,14.591111,14.594386,14.793756,14.855524,14.780452,14.632522,14.601514,14.554452,13.43232,,12.527615,12.648668,-0.121053,1.452454,0.505426,1.016036,13.092415,13.040225,0.05219,0.778204,0.438547,1.080938,13.419175,13.097711,0.321464,1.113771,0.551362,1.100292,13.211258,13.075986,0.135271,0.918781,0.392905,1.108313,13.258618,13.273688,-0.01507,0.733196,0.372519,1.11276
1018,15.0,15.0,2.256819,2.393888,2.31897,3.178002,1.997267,3.288051,2.388583,2.221664,3.311058,2.457195,2.226607,2.119353,3.389473,3.342086,3.27784,2.825806,2.211882,2.725404,2.635677,2.223835,2.554452,2.147723,2.302046,2.893539,2.205062,1.941397,1.339315,1.214213,1.205949,1.293042,1.593669,,0.738975,0.709419,0.029556,0.825038,0.640156,1.025261,0.762391,0.717591,0.0448,0.781387,0.691674,1.076894,0.96204,0.7225,0.23954,1.321966,0.703016,1.093209,1.186846,0.746979,0.439868,1.59885,0.741455,1.100386,1.140204,0.747986,0.392218,1.200246,0.765035,1.104422
1020,15.0,15.0,5.740556,5.746762,5.527083,5.892031,5.302447,6.141015,5.695108,5.207693,5.823859,5.525044,6.137756,5.924247,5.700833,5.946996,5.888573,3.684354,4.30884,3.705637,4.541027,3.307943,4.868974,4.025612,3.432928,4.855633,3.329806,3.306758,1.948039,2.372994,1.953592,2.090492,8.281971,,1.288051,1.238893,0.049158,0.185421,0.113862,1.045916,1.251191,1.235258,0.015933,0.533491,0.137067,1.105265,1.231946,1.227648,0.004298,0.461314,0.139117,1.122449,1.254277,1.228127,0.026149,0.382349,0.137268,1.128789,1.255157,1.227473,0.027684,0.38404,0.14265,1.131706
1027,15.0,15.0,1.45268,1.393804,1.131393,1.170855,1.119367,1.374991,1.28147,0.902393,1.376922,1.078843,0.938752,0.639305,0.458936,0.487072,0.452026,2.758381,2.870792,2.332586,2.339421,2.330649,1.911174,2.703699,2.318211,2.011307,2.633401,3.353637,2.068626,1.539958,0.686594,1.085584,0.675282,,0.600098,0.26975,0.330348,0.745865,0.179191,1.017571,0.603107,0.256412,0.346694,1.165643,0.186944,1.07562,0.564177,0.242536,0.321641,0.836497,0.221264,1.093379,0.605458,0.243709,0.361749,1.035245,0.269093,1.101597,0.83485,0.258788,0.576062,1.888613,0.261207,1.105967
1038,15.0,15.0,4.120225,4.647085,3.957983,4.643826,4.20282,4.512377,4.526494,4.073669,4.868163,3.992992,4.092395,4.534513,4.519303,4.390836,4.486233,5.270778,5.071219,5.125303,5.029509,4.495363,4.929666,4.721065,4.394566,5.143465,4.15614,4.139732,3.285245,3.037867,2.99467,3.015934,3.790588,,2.291079,2.226865,0.064214,0.251876,0.130653,1.010029,2.338091,2.230746,0.107345,0.406711,0.164615,1.065284,2.454911,2.227397,0.227514,0.659079,0.18071,1.08397,2.481703,2.223094,0.258609,0.794783,0.182507,1.092359,2.455371,2.238982,0.216389,0.787303,0.181497,1.09672
1041,15.0,15.0,0.235735,0.329859,0.196349,0.320239,0.149125,0.353104,0.28615,0.141437,0.444075,0.14166,0.100031,0.113063,0.122538,0.127148,0.126187,21.490314,21.413525,21.450418,21.304927,21.684328,21.052467,21.360853,21.671299,21.104987,21.677193,21.642584,21.649905,21.648184,21.642911,21.650825,11.37873,,0.235735,0.100031,0.135704,0.363033,0.131076,1.006564,0.329859,0.113063,0.216796,0.657751,0.144845,1.07192,0.320239,0.122538,0.197701,0.585376,0.153701,1.093424,0.353104,0.127148,0.225956,0.705399,0.160885,1.103903,0.444075,0.126187,0.317888,1.039954,0.16881,1.109259
1043,15.0,15.0,19.078786,20.045926,17.706376,20.277288,17.666269,18.9487,19.287152,16.473176,18.617372,16.561841,16.245184,19.554275,19.125828,18.294816,17.96075,22.081169,21.154066,21.228639,19.502631,21.236698,19.561207,19.739084,20.816991,19.568217,21.44836,18.153662,16.386214,13.843032,15.038941,15.321732,5.684701,,11.286256,10.732343,0.553912,2.820799,2.259899,0.895175,11.81821,11.849853,-0.031644,2.503586,2.300932,0.991305,10.967455,11.207558,-0.240103,3.68396,3.345421,1.011153,11.433681,11.454512,-0.02083,2.734464,2.207795,1.019373,11.862511,11.440704,0.421806,3.076248,1.848458,1.024191
