epoch,train_mse,val_mse,selection_metric,diag_hr_abs_err,diag_morph_corr,diag_amp_ratio,diag_beats_ratio,lr,epoch_time_s,elapsed_s,peak_mem_MiB,is_best,best_epoch,no_improve,event
0,0.11791238510473208,0.101015105843544,0.101015105843544,48.612684574906645,0.17870265797332924,0.10872761905193329,0.1619718309859155,0.001,71.61587241990492,71.61587241990492,20615.4521484375,1,0,0,best
1,0.116388998079029,0.09144099801778793,0.09144099801778793,41.14044435176571,0.2474466266693815,0.0776258260011673,0.15404929577464788,0.001,71.88699154811911,143.50286396802403,20615.4521484375,1,1,0,best
2,0.11328031159937382,0.10012952238321304,0.10012952238321304,18.02597922581287,0.4402482090396192,0.12701427936553955,0.7007042253521126,0.001,71.94485783483833,215.44772180286236,20615.4521484375,0,1,1,
3,0.11292553581297397,0.09678661823272705,0.09678661823272705,12.504584772055525,0.4584773766026937,0.1254049837589264,0.8221830985915493,0.001,71.92381105595268,287.37153285881504,20615.4521484375,0,1,2,
4,0.11216626952994954,0.09394054859876633,0.09394054859876633,15.318817422802596,0.5079736830795604,0.20611995458602905,0.7359154929577465,0.001,71.92957090795971,359.30110376677476,20615.4521484375,0,1,3,
5,0.1104722126302394,0.09861951321363449,0.09861951321363449,15.19816433765472,0.431678705886983,0.20980598032474518,0.7306338028169014,0.001,71.94642046093941,431.24752422771417,20615.4521484375,0,1,4,
6,0.11108236939392306,0.09211166203022003,0.09211166203022003,19.22028048933277,0.5509993420537672,0.2195548713207245,0.6549295774647887,0.001,71.89199231914245,503.1395165468566,20615.4521484375,0,1,5,
7,0.11063245037062601,0.08848733454942703,0.08848733454942703,10.653772513948882,0.5595441792721711,0.25317904353141785,0.8565140845070423,0.001,71.88167920405976,575.0211957509164,20615.4521484375,1,7,0,best
8,0.11070347973568873,0.08760557323694229,0.08760557323694229,14.77424813379567,0.5948210947149352,0.21374045312404633,0.75,0.001,71.87205683509819,646.8932525860146,20615.4521484375,1,8,0,best
9,0.11025769595395435,0.09022040665149689,0.09022040665149689,10.723079902154076,0.5837581690950023,0.2303386926651001,0.8547535211267606,0.001,71.89555403683335,718.7888066228479,20615.4521484375,0,8,1,
10,0.10904793420975858,0.0866452157497406,0.0866452157497406,16.409872761623102,0.5801581312202265,0.18770980834960938,0.7438380281690141,0.001,71.89248401112854,790.6812906339765,20615.4521484375,1,10,0,best
11,0.10915496599945156,0.08778475224971771,0.08778475224971771,17.501418459519446,0.5544821603938842,0.24517108500003815,0.7139084507042254,0.001,71.97787523106672,862.6591658650432,20615.4521484375,0,10,1,
12,0.10925853011960333,0.08914483338594437,0.08914483338594437,10.466474821529125,0.6085749555371586,0.2605019807815552,0.8609154929577465,0.001,71.89818448596634,934.5573503510095,20615.4521484375,0,10,2,
13,0.10980884493751959,0.08847938477993011,0.08847938477993011,7.793090485820663,0.634419181836675,0.2879866659641266,0.9322183098591549,0.001,71.9314718390815,1006.488822190091,20615.4521484375,0,10,3,
14,0.10715719684958458,0.08642668277025223,0.08642668277025223,10.739212449072987,0.5979225806015444,0.2167360931634903,0.8547535211267606,0.001,71.929414287908,1078.418236477999,20615.4521484375,1,14,0,best
15,0.10835474421354857,0.08796262741088867,0.08796262741088867,9.713939947485253,0.5936973993232647,0.29172611236572266,0.8653169014084507,0.001,71.941547768889,1150.359784246888,20615.4521484375,0,14,1,
16,0.10786091620949181,0.08735453337430954,0.08735453337430954,9.606905137052099,0.5840453902065073,0.2223828136920929,0.8732394366197183,0.001,71.92704612901434,1222.2868303759024,20615.4521484375,0,14,2,
17,0.10812103233554146,0.08872225135564804,0.08872225135564804,8.140711060383094,0.6068560154618541,0.27497637271881104,0.9251760563380281,0.001,72.05813185498118,1294.3449622308835,20615.4521484375,0,14,3,
18,0.10773994766853072,0.09306097030639648,0.09306097030639648,8.465574033248048,0.5741659370772608,0.21801376342773438,0.903169014084507,0.001,71.94572791806422,1366.2906901489478,20615.4521484375,0,14,4,
19,0.10804377232085574,0.09051200747489929,0.09051200747489929,13.3311433506099,0.585901226993035,0.2710039019584656,0.7975352112676056,0.001,71.94590866705403,1438.2365988160018,20615.4521484375,0,14,5,
20,0.10740365140913614,0.09853580594062805,0.09853580594062805,10.884578217716106,0.5783663659727022,0.26866599917411804,0.8688380281690141,0.001,60.5536947560031,1498.7902935720049,20596.6318359375,0,14,6,
21,0.10679628625512123,0.08634532243013382,0.08634532243013382,12.577335361251711,0.5496187007536951,0.2238672524690628,0.7816901408450704,0.001,71.9906429790426,1570.7809365510475,20615.4521484375,0,14,7,
22,0.10682229748503728,0.09613185375928879,0.09613185375928879,10.597856812547857,0.5950135917768826,0.24932633340358734,0.8626760563380281,0.001,72.06220760312863,1642.8431441541761,20615.4521484375,0,14,8,
23,0.10815920291299169,0.08696603775024414,0.08696603775024414,11.87521477534426,0.5797313153925775,0.2379012107849121,0.8125,0.001,72.06243472592905,1714.9055788801052,20615.4521484375,0,14,9,
24,0.10782797353511507,0.09121832251548767,0.09121832251548767,13.425211582434493,0.5484682632828067,0.23296184837818146,0.7887323943661971,0.001,71.98801813693717,1786.8935970170423,20615.4521484375,0,14,10,
25,0.1082525053823536,0.0940629094839096,0.0940629094839096,10.799456535608583,0.5669335986002183,0.2598758935928345,0.8336267605633803,0.001,71.87601647805423,1858.7696134950966,20615.4521484375,0,14,11,
26,0.10869594609195536,0.08929044753313065,0.08929044753313065,10.270321832499253,0.5780043524516013,0.2185552567243576,0.8688380281690141,0.001,71.98252550000325,1930.7521389950998,20615.4521484375,0,14,12,
27,0.10764491263438355,0.08905280381441116,0.08905280381441116,12.407829476456993,0.5816581607538495,0.27272602915763855,0.8019366197183099,0.001,71.9375858141575,2002.6897248092573,20615.4521484375,0,14,13,
28,0.10600564073432575,0.08952466398477554,0.08952466398477554,14.930334340481156,0.5879614493666715,0.2293059229850769,0.8089788732394366,0.001,71.94656492397189,2074.636289733229,20615.4521484375,0,14,14,
29,0.10786141898821701,0.087250716984272,0.087250716984272,11.61622121013074,0.6033590877437994,0.2600191831588745,0.8318661971830986,0.001,71.9627225229051,2146.5990122561343,20615.4521484375,0,14,15,
30,0.10760064734653993,0.09024994820356369,0.09024994820356369,9.43533458218314,0.596129576272697,0.24954305589199066,0.8626760563380281,0.001,71.9843846289441,2218.5833968850784,20615.4521484375,0,14,16,
31,0.1051999031142755,0.08666539937257767,0.08666539937257767,11.804125720489708,0.5545877384090951,0.23888246715068817,0.8459507042253521,0.001,71.9601368769072,2290.5435337619856,20615.4521484375,0,14,17,
32,0.10810694958675991,0.0913078561425209,0.0913078561425209,8.894609234295238,0.5652084910474084,0.2623724043369293,0.8890845070422535,0.001,71.94371339003555,2362.487247152021,20615.4521484375,0,14,18,
33,0.10534868555312807,0.085353322327137,0.085353322327137,9.6951595133708,0.6093440616330009,0.2608281970024109,0.8609154929577465,0.001,71.99576924508438,2434.4830163971055,20615.4521484375,1,33,0,best
34,0.10670635222711346,0.0874210000038147,0.0874210000038147,12.663450772464122,0.5766894086993646,0.265200138092041,0.8019366197183099,0.001,71.9829357538838,2506.4659521509893,20615.4521484375,0,33,1,
35,0.10591935048049146,0.08641313016414642,0.08641313016414642,8.744141438834802,0.586313449160293,0.2479563057422638,0.8565140845070423,0.001,72.06359924795106,2578.5295513989404,20615.4521484375,0,33,2,
36,0.10621760877018625,0.08572849631309509,0.08572849631309509,12.447585260432014,0.5693689894446426,0.30933359265327454,0.7922535211267606,0.001,71.9931370629929,2650.5226884619333,20615.4521484375,0,33,3,
37,0.10489169443872842,0.09224729984998703,0.09224729984998703,12.013919796034493,0.5733850588854704,0.2555057406425476,0.7904929577464789,0.001,71.94799085799605,2722.4706793199293,20615.4521484375,0,33,4,
38,0.10566459938206456,0.08904814720153809,0.08904814720153809,9.958694897215773,0.5808491132674043,0.263357013463974,0.852112676056338,0.001,71.94628252298571,2794.416961842915,20615.4521484375,0,33,5,
39,0.10467746823348782,0.08665037900209427,0.08665037900209427,13.258547286594757,0.5708198015476957,0.2711961567401886,0.7992957746478874,0.001,71.97125029889867,2866.3882121418137,20615.4521484375,0,33,6,
40,0.10564834634688768,0.08795671910047531,0.08795671910047531,10.851765524868675,0.6132840719822369,0.2130427360534668,0.8345070422535211,0.001,71.87713047396392,2938.2653426157776,20615.4521484375,0,33,7,
41,0.10573452755890257,0.08862555772066116,0.08862555772066116,10.736657845118511,0.609382552022976,0.27747976779937744,0.8565140845070423,0.001,60.57323482586071,2998.8385774416383,20596.6318359375,0,33,8,
42,0.1050834404473955,0.0857262834906578,0.0857262834906578,11.273582074022498,0.5859560119112369,0.27716904878616333,0.8424295774647887,0.001,71.91537003382109,3070.7539474754594,20615.4521484375,0,33,9,
43,0.10545629943636331,0.08712064474821091,0.08712064474821091,9.651410419272645,0.5922408407479263,0.23146753013134003,0.8389084507042254,0.001,71.96623543603346,3142.720182911493,20615.4521484375,0,33,10,
44,0.10416560298339887,0.08903925865888596,0.08903925865888596,9.719324140140703,0.6029742606000361,0.22940337657928467,0.8248239436619719,0.001,71.90305832005106,3214.623241231544,20615.4521484375,0,33,11,
45,0.10573558952998031,0.08918438106775284,0.08918438106775284,11.948362936153025,0.5922075833294137,0.2645249664783478,0.8494718309859155,0.001,71.97413166286424,3286.597372894408,20615.4521484375,0,33,12,
46,0.10516478182239966,0.08615649491548538,0.08615649491548538,10.228855402763891,0.6329558870601318,0.25259101390838623,0.8424295774647887,0.001,71.95700338715687,3358.554376281565,20615.4521484375,0,33,13,
47,0.10605369020592083,0.08597192913293839,0.08597192913293839,8.613073914084438,0.6085995426699944,0.23672649264335632,0.8723591549295775,0.001,72.02608661190607,3430.580462893471,20615.4521484375,0,33,14,
48,0.10663745454089209,0.08574369549751282,0.08574369549751282,9.8767135411712,0.5719880647294866,0.274657666683197,0.8257042253521126,0.001,71.8582054299768,3502.438668323448,20615.4521484375,0,33,15,
49,0.10585444281724367,0.08671937882900238,0.08671937882900238,11.245463128886795,0.6120064106982422,0.23223084211349487,0.8177816901408451,0.001,71.88502631802112,3574.323694641469,20615.4521484375,0,33,16,
50,0.1047719909724864,0.08863496035337448,0.08863496035337448,8.1172282954728,0.5884658635092089,0.2578490376472473,0.886443661971831,0.001,71.9470799989067,3646.2707746403757,20615.4521484375,0,33,17,
51,0.10632454519244758,0.08562140166759491,0.08562140166759491,9.304401225629483,0.6003414381111708,0.29197418689727783,0.8714788732394366,0.001,71.93478636397049,3718.2055610043462,20615.4521484375,0,33,18,
52,0.10489119260825894,0.08565793931484222,0.08565793931484222,12.110561760336125,0.6150204362167374,0.23882262408733368,0.7737676056338029,0.001,71.90207722596824,3790.1076382303145,20615.4521484375,0,33,19,
53,0.10414982617578723,0.08745968341827393,0.08745968341827393,10.214149138833289,0.5871580186592049,0.2852364182472229,0.8485915492957746,0.001,71.81275428691879,3861.9203925172333,20615.4521484375,0,33,20,early_stop(patience=20)
