subject,n_blocks,SBP_K32_S1,SBP_K16_S2,SBP_K8_S4,SBP_K4_S8,SBP_K2_S16,SBP_K1_S32,SBP_K16_S1,SBP_K8_S2,SBP_K4_S4,SBP_K2_S8,SBP_K1_S16,SBP_K1_S1,SBP_K1_S2,SBP_K1_S4,SBP_K1_S8,SBP_K16_S4,SBP_K16_S8,SBP_heun50,DBP_K32_S1,DBP_K16_S2,DBP_K8_S4,DBP_K4_S8,DBP_K2_S16,DBP_K1_S32,DBP_K16_S1,DBP_K8_S2,DBP_K4_S4,DBP_K2_S8,DBP_K1_S16,DBP_K1_S1,DBP_K1_S2,DBP_K1_S4,DBP_K1_S8,DBP_K16_S4,DBP_K16_S8,DBP_heun50,MAP_K32_S1,MAP_K16_S2,MAP_K8_S4,MAP_K4_S8,MAP_K2_S16,MAP_K1_S32,MAP_K16_S1,MAP_K8_S2,MAP_K4_S4,MAP_K2_S8,MAP_K1_S16,MAP_K1_S1,MAP_K1_S2,MAP_K1_S4,MAP_K1_S8,MAP_K16_S4,MAP_K16_S8,MAP_heun50
11,105.0,9.004546,9.020712,9.209051,9.543721,10.366051,10.992134,8.994037,8.989863,9.146119,9.590002,10.606807,8.86992,8.949368,9.243149,9.777587,9.219845,9.647317,11.36139,17.961962,18.187368,17.941326,16.962165,15.006153,13.456855,17.946123,18.160509,17.95716,16.892777,15.028722,17.812131,18.116047,17.925979,16.952149,17.947559,16.956955,12.077892,9.30497,9.039859,8.674816,8.112907,7.572968,7.398493,9.320431,9.039779,8.679436,8.126629,7.58184,9.334689,9.052909,8.688939,8.108309,8.676651,8.114171,7.306178
22,105.0,18.013352,18.639076,18.929298,19.440408,20.27205,19.273679,18.012793,18.634776,18.857979,19.438154,20.1534,17.773563,18.419622,18.720978,19.383356,18.901254,19.491443,19.677771,9.593323,9.389182,9.642422,10.422679,12.289915,14.454768,9.598862,9.401764,9.622306,10.487428,12.263566,9.610377,9.375504,9.57699,10.415525,9.587359,10.402101,16.070285,14.143806,14.61798,15.277889,16.334867,17.959522,19.133967,14.14259,14.626289,15.223157,16.297996,17.885851,13.995343,14.469334,15.118218,16.23205,15.267369,16.373184,20.406482
27,105.0,16.254726,16.156582,16.04059,15.874847,15.912556,16.5817,16.255735,16.145531,16.017904,15.920416,16.297546,16.247961,16.157304,16.075145,16.048114,16.083347,16.002629,16.649802,13.110204,12.857973,13.029171,13.806493,15.615297,17.872254,13.113028,12.847081,13.038301,13.851623,15.599281,13.315359,13.021667,13.173064,13.85015,13.050093,13.810574,19.469422,11.563713,11.777673,12.105242,12.78074,13.969731,15.073321,11.569438,11.776501,12.100379,12.791237,13.973681,11.555093,11.749837,12.086422,12.771299,12.117218,12.787994,16.24997
30,105.0,16.579983,16.380997,16.260339,15.951178,15.770967,16.508849,16.593137,16.36368,16.2925,16.06895,15.874287,16.657285,16.498642,16.440811,16.19537,16.278609,16.053314,16.290681,14.285548,14.589173,14.541717,13.964864,12.390952,10.914756,14.285957,14.605473,14.551545,13.911995,12.382614,14.247835,14.552873,14.543945,13.91505,14.527243,13.89794,9.901062,18.636469,18.23842,17.642407,16.644011,15.372041,14.381104,18.649888,18.229717,17.609472,16.691478,15.212402,18.611786,18.183559,17.575226,16.57453,17.656648,16.697247,13.285493
38,105.0,12.317559,12.103667,11.957073,11.703476,11.473908,12.201146,12.291701,12.107239,11.970011,11.687226,11.647506,12.299193,12.147037,12.053714,11.847362,11.969352,11.656552,12.124162,9.264792,9.527176,9.422127,8.667436,7.068118,6.222933,9.25142,9.497425,9.4379,8.574455,7.139317,9.108845,9.416316,9.384359,8.654185,9.46881,8.688663,5.753222,13.974111,13.430758,12.69971,11.499319,10.106476,9.654589,13.974144,13.422925,12.697597,11.554378,10.156948,14.037055,13.498917,12.776752,11.597478,12.703735,11.500076,8.816268
46,105.0,17.085407,16.503609,15.97626,15.165833,14.571245,16.178738,17.07706,16.507873,15.946732,15.267358,14.640757,17.243866,16.655851,16.130898,15.30834,15.947444,15.181298,15.892874,4.983598,5.286292,5.386119,5.131861,4.89874,5.752734,5.033519,5.308174,5.385838,5.13811,5.032771,5.118993,5.361577,5.393314,5.174526,5.353858,5.130243,6.826638,10.432346,10.051753,9.62457,8.820927,7.916528,7.375866,10.42089,10.090386,9.605159,8.877327,7.924908,10.52098,10.152771,9.678531,8.911047,9.585923,8.805734,6.864016
49,105.0,5.249859,5.348588,5.479253,5.818783,6.22004,6.493311,5.276832,5.356578,5.568304,5.770365,6.299606,5.241416,5.34598,5.463488,5.724154,5.451211,5.775831,6.878054,8.70412,8.956491,8.813346,8.083269,6.231103,4.270816,8.706081,8.912421,8.827953,8.085902,6.217024,8.484096,8.798912,8.72056,8.099824,8.818064,8.061115,3.122771,11.306572,10.823041,10.125216,9.02755,7.504185,6.24641,11.320263,10.812297,10.149129,9.082665,7.416618,11.324604,10.827527,10.139312,9.010334,10.136454,9.007209,5.168033
62,105.0,10.41636,10.217164,9.994176,9.7744,9.702259,10.369931,10.410604,10.169398,10.047493,9.934792,9.931115,10.578447,10.369547,10.245487,10.036725,10.035995,9.773962,10.360472,6.821649,7.162511,7.017555,6.312663,4.852715,4.402313,6.814322,7.198821,7.034163,6.339863,4.925538,7.049003,7.38135,7.188351,6.381364,6.99956,6.261421,4.54526,10.170343,9.736635,9.130603,8.184854,6.924487,6.132125,10.17598,9.753174,9.173653,8.229745,6.996887,10.289323,9.853804,9.245304,8.270424,9.106457,8.14837,5.347569
72,105.0,14.19915,14.427944,14.463167,14.744457,14.826148,14.473495,14.166547,14.382649,14.542208,14.413437,14.792577,13.831085,14.030376,14.072476,14.226438,14.531164,14.773382,14.944301,5.241189,5.148887,5.227108,5.236547,5.473374,6.30165,5.20371,5.175265,5.203558,5.22963,5.445702,5.06289,5.112252,5.163598,5.209591,5.204257,5.253752,7.116404,7.381492,7.478961,7.610699,7.883603,8.437812,8.880946,7.377152,7.459299,7.584808,7.858619,8.337142,7.304865,7.402381,7.539214,7.802309,7.630169,7.91066,9.534269
73,105.0,18.860696,19.084399,19.087907,19.289967,19.464707,18.644833,18.859909,19.014713,19.054993,19.167829,19.63569,18.688566,18.926065,18.945586,19.190842,19.192297,19.485778,18.987759,4.531645,4.596673,4.547245,4.494674,4.852402,6.135206,4.53706,4.615153,4.563007,4.563144,4.98769,4.846707,4.891934,4.833423,4.735076,4.562347,4.437182,7.336398,3.752404,4.040031,4.553555,5.459991,6.875276,7.981899,3.766643,4.035996,4.539286,5.464038,6.94679,3.750458,4.052142,4.56299,5.511399,4.556088,5.460928,9.146925
78,105.0,9.230262,9.112121,9.103057,9.043573,9.027032,9.496353,9.21666,9.178842,9.148872,9.07986,9.004364,9.279925,9.164687,9.068994,8.993243,9.043774,8.947108,9.557298,6.283201,6.072072,6.063203,6.409852,7.369833,8.634133,6.296274,6.056247,6.032455,6.359515,7.332446,6.250796,5.980936,6.001625,6.312672,6.073371,6.419987,9.985669,5.873868,5.931186,6.106236,6.458987,7.380137,8.046528,5.866167,5.946451,6.087187,6.478148,7.385538,5.911757,5.97226,6.102809,6.472063,6.090082,6.48763,8.905532
82,105.0,20.169527,20.332348,20.509866,20.84669,20.965702,19.532524,20.165753,20.338126,20.411445,20.680015,21.073872,19.940655,20.115612,20.208741,20.668238,20.519468,20.964403,19.780183,6.007259,5.893185,5.916433,6.175034,7.214927,9.090215,5.95951,5.891851,5.910772,6.140748,7.43417,5.92424,5.839702,5.843473,6.224793,5.917412,6.175024,10.537776,8.510596,8.709793,9.052384,9.781583,11.093099,11.923278,8.504203,8.676571,9.040395,9.767418,11.107448,8.432122,8.661596,9.02222,9.775735,9.083144,9.845979,13.119067
85,105.0,10.104567,9.574906,9.264,8.727059,8.146814,9.512736,10.100417,9.603767,9.292779,8.894807,8.205428,10.315553,9.807157,9.513819,8.904095,9.259436,8.701519,9.039065,3.961572,4.244797,4.245012,3.785462,2.619905,2.364431,3.953516,4.246819,4.240184,3.780448,2.755389,3.980849,4.275458,4.220047,3.796795,4.240771,3.741326,2.895446,8.299702,7.792656,7.086377,6.046604,4.779646,4.230519,8.294517,7.771187,7.116642,6.089888,4.906284,8.388009,7.899859,7.226648,6.180097,7.109403,6.061138,3.481621
88,105.0,30.540261,30.385227,30.379924,30.207048,30.123663,30.641374,30.543844,30.44196,30.42935,30.335942,30.012577,30.556438,30.396175,30.396483,30.250965,30.315498,30.146242,30.472137,11.296458,11.531428,11.381212,10.749203,9.312432,7.915194,11.295605,11.557644,11.379057,10.641666,9.246409,11.227687,11.371591,11.160445,10.577353,11.350503,10.680263,6.872021,16.872287,16.402618,15.782979,14.771226,13.267339,12.454472,16.872837,16.436749,15.847942,14.702806,13.219329,16.90417,16.431563,15.772273,14.674733,15.750584,14.667269,11.496228
89,105.0,18.804982,18.838431,18.932007,19.020452,19.102445,18.370498,18.766693,18.861922,18.878334,18.930781,18.717387,18.476454,18.47706,18.521755,18.641527,18.911717,19.0705,18.427898,7.544774,7.673876,7.587243,7.381897,7.225827,7.743861,7.555367,7.623214,7.607859,7.377078,7.286629,7.634261,7.717486,7.622223,7.42024,7.594733,7.333233,8.33789,7.385368,7.296421,7.172826,7.06848,7.184639,7.590747,7.389745,7.298072,7.138187,7.092016,7.209634,7.379548,7.289888,7.170252,7.084223,7.161713,7.074526,8.232537
99,105.0,15.284746,15.472566,15.697087,16.137059,16.780954,14.389542,15.279776,15.480759,15.554372,16.16732,16.27349,15.0259,15.135878,15.285406,15.826394,15.717592,16.37211,14.714908,5.864519,5.717275,5.874248,6.543965,8.333459,10.290575,5.883976,5.766406,5.874689,6.630102,8.527348,6.51189,6.325448,6.442596,6.995031,5.828471,6.479248,12.124362,7.283112,7.684747,8.276143,9.375901,11.107323,11.789692,7.290657,7.685082,8.267937,9.404642,11.029405,7.302631,7.701173,8.285761,9.368149,8.269365,9.403868,13.124784
100,105.0,15.031254,15.180519,15.284168,15.29773,15.43627,15.459507,15.062538,15.213362,15.145442,15.246933,15.773089,15.175115,15.317442,15.423468,15.562439,15.259129,15.442211,15.606171,5.549636,5.808622,5.806311,5.433987,5.239688,6.064131,5.567934,5.821866,5.787208,5.531947,5.238009,5.93148,6.076829,6.059215,5.643487,5.817586,5.472317,7.019106,5.735679,5.927362,6.258954,6.805169,7.636561,8.28849,5.734121,5.947635,6.227782,6.76874,7.709895,5.754253,5.939304,6.240032,6.826425,6.241757,6.824535,9.155384
103,105.0,10.432057,10.447039,10.468835,10.456766,10.610476,10.606906,10.449808,10.548817,10.478799,10.487667,10.781392,10.488606,10.483868,10.500247,10.55339,10.380823,10.312094,10.894041,5.253026,5.401969,5.238112,4.748065,4.309982,4.802812,5.236123,5.410567,5.225286,4.838818,4.319431,5.34623,5.430687,5.200978,4.777893,5.242738,4.726196,5.645836,6.133352,5.962305,5.783634,5.568835,5.572876,5.885258,6.113444,5.964498,5.767441,5.609687,5.626295,6.120754,5.969872,5.791919,5.602574,5.772632,5.560343,6.490919
110,105.0,11.472569,10.890415,10.598945,10.108279,9.943403,11.001483,11.520606,10.850301,10.710708,10.499054,10.117662,11.89809,11.361448,11.140742,10.630515,10.605188,9.997997,10.853407,6.5984,6.753454,6.636065,6.213188,5.343838,4.81303,6.57844,6.74329,6.643142,6.24,5.368926,6.554699,6.761813,6.716296,6.2756,6.634909,6.162469,5.177286,7.503127,7.199552,6.767286,6.088417,5.420196,5.383665,7.521574,7.203303,6.793795,6.224625,5.476498,7.663316,7.341217,6.909508,6.217203,6.774422,6.079201,5.560658
126,105.0,11.316776,11.220752,11.282936,11.267102,11.248622,12.888678,11.342878,11.243124,11.323663,11.325346,11.139981,11.547906,11.438242,11.459688,11.288122,11.244565,11.181521,12.885976,7.424634,7.526365,7.417864,7.153447,6.673149,6.740816,7.447935,7.47811,7.399699,7.016889,6.723565,7.38002,7.413578,7.328212,7.029752,7.417976,7.207669,6.921634,8.805884,8.626797,8.35749,8.040071,7.656068,7.572163,8.810013,8.605636,8.349798,8.01097,7.621828,8.813276,8.603041,8.322921,7.988843,8.372983,8.065551,7.417791
129,105.0,19.009399,19.285053,19.385544,19.875088,20.176388,19.546417,19.035004,19.246466,19.481679,19.791203,20.272174,18.932612,19.188928,19.423427,19.859506,19.450251,19.769033,19.681807,7.5095,7.696653,7.62804,7.244486,6.657066,6.463437,7.514565,7.693493,7.603304,7.334397,6.657675,7.591979,7.754684,7.687693,7.317352,7.62399,7.240497,6.540573,9.219608,9.23438,9.242849,9.376499,9.586229,9.633324,9.240548,9.230519,9.269308,9.329768,9.44444,9.222354,9.206669,9.198128,9.277024,9.244885,9.350073,9.988895
142,105.0,8.007401,8.453436,8.784864,9.294508,9.717231,8.512739,8.041377,8.467716,8.783497,9.246339,9.516642,8.032818,8.381926,8.642395,9.075244,8.774209,9.231552,8.799876,20.758418,21.120787,20.988075,20.224639,18.278348,16.111322,20.739659,21.052241,20.980345,20.215644,18.336752,20.684019,21.097954,21.039479,20.254219,21.033128,20.230715,14.381456,16.769219,16.264384,15.562681,14.354289,12.699291,11.571787,16.771217,16.263736,15.56413,14.42018,12.696217,16.816517,16.311518,15.61174,14.415394,15.562041,14.358968,10.210754
149,105.0,14.600533,14.605137,14.566771,14.511395,14.527153,14.315003,14.591443,14.590602,14.523912,14.54186,14.627234,14.675241,14.619246,14.595972,14.643669,14.548535,14.530742,14.227278,5.854353,5.508006,5.552627,6.013464,7.499211,8.971813,5.829965,5.50516,5.604284,6.110189,7.326301,5.886853,5.586354,5.590139,6.005382,5.553057,6.043449,10.382538,6.741367,6.838657,6.987033,7.38326,8.113109,8.684105,6.731416,6.831392,6.986714,7.328109,8.052916,6.748905,6.841179,7.001146,7.319043,7.009336,7.386175,9.623143
154,105.0,10.452112,10.731046,10.980321,11.320737,11.605491,11.433124,10.452322,10.776559,11.005117,11.26624,11.852356,10.429477,10.711612,10.869917,11.306913,10.930957,11.238717,11.731406,12.460249,12.722622,12.627108,11.948699,10.313462,8.74772,12.416784,12.739408,12.646709,11.91433,10.260481,12.233798,12.613987,12.555913,11.888383,12.628639,11.953864,7.694569,8.576279,8.308772,7.976266,7.444721,6.875546,6.685389,8.565898,8.303324,7.943,7.465696,6.993314,8.631867,8.367471,8.046145,7.562816,7.98025,7.480697,6.412468
171,105.0,8.744817,9.126004,9.810364,11.127947,12.431685,13.255137,8.73094,9.09606,9.759113,10.939568,12.498352,8.699795,9.00952,9.630156,10.963858,9.855666,11.257082,14.089624,14.140124,14.562242,14.868666,14.902399,13.89053,12.995139,14.091575,14.524693,14.867105,14.822841,13.909312,13.88755,14.364013,14.705354,14.783252,14.909262,14.911941,11.670149,3.678885,3.732802,3.859627,4.20567,4.975149,5.675376,3.675574,3.753209,3.8347,4.203648,5.049833,3.681188,3.727712,3.843916,4.237667,3.84309,4.205639,6.674541
179,105.0,9.533992,9.167265,8.926468,8.5245,8.294386,9.434499,9.532479,9.163609,8.94711,8.720349,8.632516,9.680465,9.314682,9.161162,8.970418,8.912086,8.475734,9.397692,16.955345,17.297075,17.19534,16.392603,14.658887,12.972647,16.985836,17.365784,17.190684,16.257383,14.609744,16.919734,17.224783,17.024125,16.185535,17.140788,16.357406,11.472051,15.53816,15.026286,14.353626,13.246055,11.739906,10.572575,15.523447,15.028223,14.393313,13.317152,11.606952,15.557297,15.057663,14.369935,13.206927,14.347665,13.200073,9.385542
180,105.0,9.301825,9.483494,9.662298,9.806269,10.109941,10.136505,9.280365,9.496384,9.586524,9.762749,10.429942,9.198756,9.428508,9.648465,9.935813,9.650164,9.882435,10.639424,8.727446,8.428607,8.417312,8.784689,9.876738,10.948502,8.761813,8.441348,8.380626,8.783623,9.74605,8.72689,8.373382,8.33656,8.745195,8.439801,8.834803,11.904986,8.799385,9.089633,9.558356,10.306571,11.351267,11.993418,8.797068,9.090548,9.551305,10.277765,11.2738,8.731133,9.029038,9.472126,10.221446,9.558683,10.314324,12.839016
185,105.0,8.861519,9.14318,9.367385,9.548089,9.973929,9.992486,8.860639,9.120278,9.279741,9.582194,10.274035,9.036422,9.264269,9.49547,9.886081,9.366682,9.589339,10.16843,16.905874,17.103308,16.832096,15.678265,14.04244,12.326437,16.834662,17.099416,16.741294,15.683473,13.948159,16.388059,16.740915,16.677809,15.711562,16.841265,15.794175,10.248817,15.550133,15.107503,14.539619,13.608348,12.498324,12.409234,15.545721,15.137446,14.569909,13.631986,12.50225,15.615962,15.182762,14.586716,13.630532,14.506064,13.540037,11.571418
191,105.0,14.484054,14.643198,14.723276,14.98547,14.982155,13.751219,14.470633,14.664693,14.754541,14.847707,14.960066,14.346544,14.570842,14.647829,14.813228,14.750773,15.021895,13.921599,5.739206,5.856944,5.847883,5.603254,5.120227,4.805943,5.735979,5.902072,5.854746,5.553086,4.9912,5.760888,5.891857,5.781578,5.499145,5.83314,5.586159,5.113679,7.630382,7.503528,7.361804,7.149083,7.015773,6.851676,7.631016,7.535332,7.369325,7.170047,6.990733,7.635956,7.510266,7.327523,7.13586,7.332098,7.124092,6.954421
203,105.0,17.037452,17.450465,17.677942,18.080138,18.639449,17.433871,17.021455,17.450224,17.558134,18.104209,18.910606,17.034007,17.443592,17.670893,18.255194,17.694035,18.163537,17.916032,14.034618,13.703073,13.773014,14.388235,16.031235,17.809721,14.013308,13.730193,13.787711,14.430478,16.145767,14.313055,13.908044,13.895522,14.52046,13.769537,14.42311,19.283613,13.592524,14.049234,14.730722,15.755291,17.222915,18.244872,13.584927,14.063719,14.667157,15.738854,17.346233,13.579582,14.047335,14.718197,15.830328,14.713139,15.811474,19.475799
205,105.0,33.884803,34.144369,34.373148,34.901743,35.394973,33.271621,33.889177,34.129474,34.379454,34.989206,35.34263,33.786753,34.081364,34.381987,34.966186,34.383495,34.951076,33.274027,7.864433,7.643711,7.872137,8.801579,10.934981,13.071623,7.884198,7.650085,7.917919,8.870115,10.845247,7.977225,7.748944,7.870881,8.761517,7.84759,8.796251,14.904648,12.793485,13.27215,13.984968,15.178469,16.824944,17.97731,12.786934,13.271375,13.965388,15.13295,16.874982,12.758965,13.245119,13.960444,15.176911,13.982586,15.186297,19.330571
208,105.0,7.262748,6.944219,6.863385,6.959379,7.315609,8.040913,7.218326,7.006106,6.953313,7.025194,7.391417,7.174453,6.961597,6.975564,7.144239,6.833269,6.895309,8.192912,8.734685,9.183213,9.232794,8.510583,6.965534,5.81683,8.732381,9.192573,9.22637,8.489691,7.011642,8.587487,9.016341,9.040871,8.44122,9.182499,8.519387,5.063761,9.824118,9.318553,8.635334,7.6141,6.511036,5.93556,9.821496,9.322971,8.682879,7.686212,6.512963,9.903078,9.395805,8.717746,7.687171,8.630116,7.524107,5.142982
210,105.0,10.769222,11.703529,12.905532,14.24459,15.227354,14.035246,10.743374,11.698858,12.830541,14.044124,15.062066,10.587054,11.479996,12.593064,13.958516,12.872092,14.251003,14.177047,2.687313,2.752577,2.768269,2.987317,4.166935,5.757666,2.716385,2.748866,2.790769,3.077196,4.254071,2.93648,2.970314,2.999823,3.18835,2.736039,2.908885,7.372235,4.30701,4.590551,5.01022,5.796608,7.194426,8.231716,4.314292,4.588789,5.000668,5.762361,7.193772,4.302734,4.560734,4.985092,5.769153,5.018039,5.815351,9.557504
214,105.0,10.763322,10.664035,10.602977,10.468176,10.638897,12.072005,10.791329,10.659317,10.658423,10.665431,10.606566,10.878764,10.801674,10.762493,10.625822,10.582768,10.355876,12.164803,11.363622,11.590087,11.265153,10.206319,8.162352,6.420486,11.361064,11.526749,11.235168,10.163044,8.051259,11.023553,11.350661,11.138158,10.071419,11.274243,10.245823,5.052433,14.633894,14.11847,13.39034,12.170071,10.511963,9.773931,14.645229,14.121358,13.385999,12.189903,10.430392,14.611901,14.081178,13.342449,12.118048,13.38581,12.173069,8.558128
225,105.0,8.014517,7.800882,7.802277,7.664965,7.391166,8.14944,8.029542,7.843887,7.842293,7.671332,7.302905,8.091602,7.871945,7.80254,7.610004,7.732092,7.418496,7.776534,13.468649,13.870262,13.563256,12.677678,10.929001,9.231112,13.455396,13.843931,13.549609,12.64227,10.943504,13.168215,13.624868,13.422484,12.634101,13.568235,12.724967,7.908092,17.221875,16.719467,15.980862,14.794144,13.075779,11.808529,17.234294,16.734252,16.017994,14.87479,13.126953,17.374844,16.870582,16.126521,14.91556,15.963366,14.717719,10.450425
234,105.0,33.085589,32.215383,30.968722,29.448068,27.692958,28.723692,33.087083,32.224807,31.042719,29.285079,27.837081,33.175284,32.307491,30.966987,29.345956,30.930045,29.396818,28.19155,23.040152,23.006287,22.445778,21.240282,18.690501,15.748687,23.043895,22.948868,22.459055,20.992912,18.390958,22.564882,22.571615,22.099353,20.846422,22.48316,21.275651,13.686928,25.617004,25.139959,24.441359,23.330195,21.556478,20.255932,25.624524,25.135646,24.486136,23.309486,21.447448,25.604789,25.113839,24.409081,23.231042,24.446476,23.289417,18.899661
243,105.0,17.874772,18.182203,18.399702,18.495648,18.815477,18.232599,17.882723,18.19618,18.344903,18.59735,18.617783,17.781352,18.087328,18.292648,18.441441,18.402729,18.605048,18.208233,7.046274,7.352308,7.400396,6.989318,6.153214,5.767323,7.011638,7.356153,7.469252,7.012886,6.206522,7.18882,7.438626,7.490738,7.026417,7.405674,6.958001,5.73166,9.321005,9.303643,9.287193,9.313277,9.403929,9.690421,9.320526,9.296715,9.299761,9.294837,9.470213,9.346436,9.329514,9.31114,9.335535,9.291653,9.298772,9.8803
245,105.0,18.709,18.701449,18.83166,18.928674,19.048665,19.303763,18.703476,18.727598,18.837078,19.004473,19.016202,18.724313,18.690422,18.781633,18.904846,18.802549,18.919688,19.315706,6.428985,6.461156,6.429092,6.357759,6.520918,7.707581,6.44093,6.509585,6.457854,6.371262,6.783687,6.635404,6.607539,6.49593,6.400025,6.429092,6.316443,8.870329,9.719854,9.612262,9.431388,9.231898,9.188213,9.422066,9.736409,9.598672,9.433914,9.239828,9.259067,9.74302,9.621453,9.45926,9.293218,9.445309,9.216471,9.740435
256,105.0,9.207119,9.41826,9.515601,9.807544,10.037316,9.558807,9.187158,9.34532,9.456693,9.634317,9.975019,9.002677,9.134259,9.231239,9.529716,9.588318,9.927978,9.981954,13.09998,13.488588,13.299986,12.553273,10.896578,9.239811,13.13231,13.42797,13.302304,12.547292,10.917561,13.077909,13.457322,13.29906,12.521284,13.33987,12.603852,8.019159,12.038095,11.566862,10.952322,9.968389,8.767453,8.004894,12.014494,11.598845,10.978881,10.037957,8.782654,12.135979,11.692822,11.057208,10.067864,10.918569,9.915712,7.094583
261,105.0,14.776566,14.467638,14.213873,13.832606,13.587699,15.349023,14.769697,14.449546,14.290371,13.950898,13.697609,14.840857,14.551593,14.352989,13.986642,14.211048,13.731235,15.126104,9.100905,8.929756,9.00404,9.407795,10.484144,11.717512,9.098234,8.908814,8.966304,9.407516,10.46403,9.16103,8.983272,9.027965,9.384157,8.994694,9.414901,12.816989,4.929021,4.80931,4.652014,4.688334,4.949436,5.237242,4.92172,4.763941,4.688183,4.673515,4.895255,4.895632,4.777964,4.659733,4.630155,4.710674,4.697558,5.779709
268,105.0,7.320947,7.288229,7.253395,7.254437,7.437813,7.635189,7.317351,7.307102,7.273026,7.470606,7.666926,7.477803,7.477037,7.510493,7.67333,7.241018,7.234217,7.691599,17.267853,17.629552,17.487309,16.683083,15.011114,13.047531,17.24524,17.618782,17.439382,16.657633,14.998479,17.108889,17.523992,17.382556,16.637624,17.483122,16.69292,11.614847,17.566655,17.069192,16.386032,15.309201,13.785787,12.65732,17.566707,17.071056,16.402156,15.319075,13.766485,17.579994,17.083835,16.397189,15.302615,16.38525,15.297581,11.444688
273,105.0,17.688161,16.883507,16.30226,15.486524,14.940445,16.00041,17.665002,16.937882,16.270572,15.60429,14.939733,18.007528,17.177034,16.488351,15.663839,16.236438,15.466619,15.744665,11.989068,12.377303,12.519264,12.057659,10.380374,8.598755,12.006293,12.338456,12.498823,11.983172,10.390044,11.658769,12.030227,12.275002,11.977818,12.532018,12.122608,7.074103,14.95494,14.469311,13.858275,12.837719,11.340138,10.403416,14.955078,14.491193,13.885605,12.82388,11.337469,14.997821,14.511409,13.88204,12.825579,13.837864,12.784256,9.346314
297,105.0,10.18371,10.565172,11.008922,11.88311,12.507643,12.385405,10.182608,10.555867,11.11025,11.838078,12.731423,10.342035,10.700415,11.250543,12.099616,10.997944,11.735453,12.600679,5.249985,5.097975,5.065603,5.111354,6.010772,7.144119,5.203279,5.077956,5.072495,5.199222,5.897643,5.38775,5.227823,5.108579,5.174961,5.061968,5.089837,8.576209,7.107952,7.097729,7.104609,7.217603,7.736562,8.133642,7.099112,7.101468,7.077568,7.274982,7.717899,7.055264,7.056296,7.090723,7.241216,7.097768,7.254125,8.734221
302,105.0,13.870563,14.163592,14.205426,14.50914,15.01649,13.69034,13.876947,14.121068,14.271684,14.576306,14.929386,13.91335,14.180557,14.291151,14.554257,14.221541,14.553235,14.058571,7.707178,7.973314,7.803977,7.157245,5.973718,5.127176,7.708751,7.952629,7.822578,7.257096,6.031404,7.742185,8.040938,7.899744,7.222066,7.821419,7.167672,4.714634,8.035467,7.768526,7.419301,6.861621,6.499113,6.444251,8.025284,7.75638,7.36948,6.935366,6.595154,8.041577,7.792215,7.452193,6.986408,7.432607,6.951141,6.331701
304,105.0,9.773538,9.310425,9.028338,8.769758,8.801484,9.377965,9.800456,9.328516,8.945964,8.876068,8.989767,10.041633,9.565743,9.230167,9.128721,8.972289,8.663099,9.337656,12.603177,12.627138,11.837483,10.028182,7.471506,5.150979,12.613971,12.641858,11.857444,9.97231,7.390863,12.447729,12.532558,11.773538,9.884241,11.898394,10.00977,4.658192,8.090158,7.819676,7.484465,6.945633,6.354487,6.03927,8.085339,7.820267,7.471766,6.962822,6.290705,8.078265,7.80691,7.46833,6.928601,7.483567,6.940591,5.831883
306,105.0,23.476654,23.671912,23.890834,24.387447,24.683488,23.729398,23.494114,23.685395,23.928413,24.237825,24.848559,23.496677,23.667961,23.937715,24.410485,23.914363,24.376815,24.139684,9.136767,9.055387,9.057164,9.315399,9.947232,10.93026,9.116449,9.071482,9.159404,9.391656,10.027071,9.162503,9.133506,9.177883,9.355271,9.060873,9.243139,11.830813,12.131095,12.271401,12.426724,12.785037,13.444995,13.873782,12.153995,12.25596,12.426813,12.746283,13.508483,12.132842,12.250217,12.415061,12.806699,12.443379,12.803439,14.579428
315,105.0,13.775295,14.127131,14.233532,14.546916,14.924747,14.395511,13.737179,14.102864,14.227644,14.525943,15.035159,13.639216,14.004737,14.203534,14.575051,14.267959,14.6261,14.686313,6.50004,6.689934,6.360037,5.647398,4.46557,4.009987,6.510021,6.667177,6.374296,5.633568,4.549121,6.37727,6.58831,6.387598,5.672861,6.361832,5.63575,4.441225,6.79263,6.948652,7.212634,7.758027,8.639942,9.499718,6.788087,6.939902,7.21528,7.735344,8.704331,6.82447,6.987046,7.250307,7.785118,7.2236,7.767773,10.277747
321,105.0,10.179389,10.354288,10.390268,10.697367,10.751454,10.435554,10.171894,10.321767,10.480028,10.508791,10.923931,10.32131,10.427553,10.45431,10.665886,10.400188,10.546689,10.690566,10.812084,11.103596,10.927498,10.122407,8.409062,7.026635,10.723092,11.113499,10.889895,10.159596,8.533125,10.593235,11.019438,10.907841,10.223344,10.938263,10.085797,6.334256,7.506252,7.220362,6.878806,6.352585,5.90258,6.157024,7.489042,7.240215,6.890897,6.42813,6.030672,7.663148,7.398568,7.040409,6.549683,6.85655,6.336784,6.369964
336,105.0,13.043099,13.266438,13.444757,14.06661,14.761071,14.792252,13.032228,13.218145,13.418927,14.101996,14.846884,12.972712,13.226664,13.467082,14.205769,13.470242,14.103991,15.278871,5.922627,5.660466,5.89599,6.782098,8.835421,11.031073,5.885439,5.681356,5.91875,6.840541,8.925634,6.224785,5.951422,6.071256,6.952402,5.874266,6.781014,12.895503,9.539792,10.050501,10.786312,11.984703,13.62577,14.531322,9.536771,10.055845,10.77626,11.961528,13.597766,9.47644,9.991384,10.723338,11.935474,10.779858,11.987422,15.822964
344,105.0,16.144461,15.8927,15.768733,15.374866,15.235399,15.946326,16.142535,15.910992,15.795696,15.708706,15.258615,16.404723,16.12987,16.004715,15.716364,15.745272,15.384429,15.583936,5.442946,5.467749,5.405348,5.318557,5.536008,6.607666,5.43822,5.469611,5.428206,5.325885,5.512272,5.594456,5.534757,5.471522,5.325054,5.411306,5.314234,7.794615,7.921678,7.785907,7.564159,7.275278,6.95389,6.918268,7.920896,7.772895,7.605788,7.321418,6.943284,7.964737,7.828225,7.619401,7.285197,7.580821,7.244022,7.096863
348,105.0,10.347588,10.653771,10.899113,11.521025,11.773961,11.741469,10.377126,10.629498,10.939045,11.242648,12.253936,10.219742,10.520219,10.854718,11.502578,10.924022,11.424395,12.232729,14.951712,15.297356,15.274142,14.556266,12.649369,10.359292,14.935711,15.308426,15.2788,14.533345,12.569907,14.841524,15.240741,15.296712,14.522349,15.236676,14.560909,8.786561,10.828938,10.357943,9.735748,8.865729,7.659869,6.728585,10.821632,10.348557,9.787771,8.833726,7.579835,10.794013,10.328067,9.699777,8.777777,9.744174,8.827327,6.199181
371,105.0,15.223621,15.166621,15.046368,14.858568,14.800475,15.615411,15.264418,15.174163,15.060302,14.870883,15.128159,15.474644,15.369581,15.278493,15.109381,15.013588,14.837398,15.76677,6.374363,6.385861,6.363445,6.365614,6.937219,8.646659,6.378269,6.417829,6.397727,6.362372,7.102518,6.465861,6.436029,6.44947,6.404667,6.35716,6.332845,10.17554,8.693559,8.708657,8.762912,8.820136,8.889734,9.310312,8.699958,8.723298,8.770401,8.773454,8.979995,8.740585,8.743178,8.775938,8.826294,8.749932,8.805853,9.937779
394,105.0,20.569851,21.102669,21.40163,21.997497,22.656027,21.309296,20.568014,21.062971,21.318757,21.761726,22.56607,20.470239,20.968581,21.229353,21.821559,21.451032,22.168682,21.811427,8.786634,8.698276,8.71429,8.801072,9.343092,10.602744,8.777847,8.779736,8.730559,8.77826,9.339943,8.769757,8.684229,8.654814,8.723465,8.691264,8.787798,11.388851,12.635276,12.804178,13.043227,13.629738,14.413638,15.070259,12.635336,12.770491,13.115592,13.609536,14.351429,12.564401,12.745747,13.035593,13.538869,13.075656,13.583533,15.772825
406,105.0,18.011813,17.573978,17.089532,16.328061,16.132074,18.205586,17.984401,17.565694,17.075749,16.610686,15.921554,18.11251,17.608531,17.185979,16.438271,17.100604,16.326429,18.197678,9.228447,9.519778,9.373577,8.729828,7.442171,6.611881,9.263148,9.483247,9.322464,8.740055,7.555754,9.230286,9.487738,9.378023,8.822531,9.412636,8.759502,5.730991,13.701583,13.236815,12.606425,11.53048,10.179615,9.581103,13.717832,13.262329,12.656097,11.610434,10.16395,13.823959,13.340846,12.6809,11.557533,12.575567,11.447959,8.668484
410,105.0,10.822725,10.491289,10.341061,10.049549,9.653125,10.048642,10.817219,10.505042,10.429998,10.077384,9.493958,10.997862,10.690303,10.534313,10.060647,10.362365,9.905336,9.795716,18.550711,18.948023,18.660179,17.63216,15.385537,12.947809,18.549307,18.930189,18.695103,17.654016,15.489441,18.623137,19.043718,18.816979,17.739741,18.660162,17.583159,11.367741,19.203053,18.705836,17.963536,16.749713,15.039966,13.634429,19.221699,18.733015,17.99676,16.851197,15.098439,19.397119,18.889522,18.134107,16.899526,17.935816,16.675925,12.319856
416,105.0,22.347284,22.185984,22.030938,21.710302,21.224536,22.711626,22.374475,22.183933,22.070213,21.647442,21.310147,22.462847,22.265957,22.151802,21.774947,22.023594,21.647127,22.437862,2.433428,2.516049,2.401489,2.247733,2.950225,4.677853,2.429144,2.487852,2.42281,2.226333,3.061166,2.364396,2.379767,2.379211,2.322874,2.417312,2.243582,6.193676,8.015344,7.645912,7.084475,6.290759,5.455717,5.359929,8.02218,7.616456,7.097214,6.239485,5.550791,7.997363,7.622802,7.110667,6.323017,7.115076,6.306947,5.070038
420,105.0,33.760758,34.398105,34.689335,35.372127,35.916463,34.479282,33.799192,34.373928,34.648285,35.246143,35.839157,33.535877,34.089736,34.432709,35.12112,34.733886,35.367883,34.87325,11.728626,11.56473,11.635178,12.007037,13.103176,14.724323,11.748005,11.53299,11.619768,12.022197,13.152663,12.00313,11.722053,11.739665,12.128352,11.67095,12.060498,15.883317,20.328169,20.698896,21.213621,22.067787,23.319839,24.373996,20.335483,20.689753,21.196922,22.060789,23.370038,20.341599,20.699122,21.22364,22.100642,21.225216,22.094878,25.469709
431,105.0,8.709263,8.522502,8.326017,7.993734,7.731288,8.130511,8.714292,8.561725,8.320773,8.051665,7.473986,8.900992,8.696871,8.397387,7.930988,8.315935,8.045536,7.827969,6.944943,7.123869,6.904469,6.140316,4.785917,4.342576,6.945628,7.113991,6.97319,6.046093,4.937208,7.134683,7.323898,7.069044,6.148848,6.896931,6.143616,4.243609,8.064398,7.660317,7.109624,6.295624,5.410868,5.109148,8.089246,7.682292,7.142949,6.290389,5.455755,8.094371,7.672568,7.156397,6.339359,7.089863,6.249268,4.852365
433,105.0,8.159866,8.272752,8.393235,8.699569,9.341904,9.231217,8.13493,8.292362,8.403472,8.740863,9.463348,8.052087,8.207581,8.43313,8.82483,8.379803,8.607656,9.766068,3.369657,3.066292,3.245472,4.091623,6.089694,8.194138,3.367443,3.072799,3.268112,4.05407,5.951874,3.481071,3.124468,3.188117,3.981903,3.264406,4.074732,9.758082,5.794005,6.31481,7.056772,8.26529,9.93311,11.171492,5.804337,6.309438,7.050024,8.195686,9.884944,5.734725,6.230407,6.964592,8.163267,7.060735,8.262313,12.521391
436,105.0,27.117925,27.561869,27.853935,28.366452,29.185868,28.046198,27.099242,27.524265,27.765628,28.339646,29.081386,26.881405,27.287758,27.574131,28.197474,27.877645,28.491108,28.725334,5.452413,5.258089,5.479707,6.11933,7.815344,10.005731,5.458703,5.267614,5.469664,6.13409,7.87103,5.58003,5.348027,5.493534,6.21302,5.475063,6.125677,11.52643,9.624006,10.10173,10.819144,11.931126,13.592459,14.789272,9.624603,10.098577,10.76094,11.949116,13.581125,9.563631,10.043262,10.768213,11.943452,10.828276,12.006104,16.064625
438,105.0,8.384721,8.630943,8.749292,8.986023,9.189414,8.930143,8.362985,8.646323,8.723236,8.792287,9.369011,8.235975,8.43139,8.546637,8.878033,8.765892,9.161648,9.362527,14.469759,14.774855,14.587372,13.8135,12.366928,10.667666,14.452009,14.751448,14.536812,13.853091,12.263398,14.369409,14.759354,14.548559,13.807403,14.592429,13.836076,9.551091,14.010876,13.621164,13.091888,12.304976,11.305022,10.699154,14.01172,13.629851,13.10768,12.328724,11.35645,14.104014,13.727087,13.196577,12.400102,13.082779,12.276218,9.948194
439,105.0,13.090921,13.371322,13.570868,13.865171,14.361155,13.76857,13.062308,13.358786,13.473715,13.826506,14.450604,12.960498,13.263591,13.503469,13.914614,13.567368,14.000051,14.282142,17.088563,17.103446,17.030692,16.884479,16.720135,17.120061,17.096503,17.116374,17.050346,16.826235,16.812874,17.035653,17.067654,17.032709,16.920068,17.020325,16.834823,17.667357,12.134074,12.15868,12.242666,12.456339,12.906164,13.767291,12.144554,12.176113,12.254606,12.457839,13.036613,12.253037,12.271296,12.340784,12.539477,12.221664,12.427023,14.652993
445,105.0,19.107478,18.778488,18.562756,17.992261,17.451757,19.50592,19.10606,18.793388,18.614062,18.096782,17.365664,19.199831,18.892521,18.691666,18.056212,18.546377,17.910356,19.073144,5.258872,5.508314,5.295437,4.323739,2.944718,2.471221,5.240586,5.536201,5.331653,4.313937,2.900322,5.385545,5.602266,5.341967,4.305566,5.262383,4.235312,2.998217,12.610255,12.048203,11.323336,10.065884,8.348297,7.54839,12.599008,12.08064,11.331786,10.127515,8.329201,12.691587,12.142399,11.38621,10.115843,11.289517,10.015322,6.095691
457,105.0,12.583553,12.347926,12.18797,12.196315,12.303941,13.632452,12.596192,12.291846,12.334598,12.358905,12.695231,12.767441,12.617571,12.641897,12.642232,12.284472,12.134374,13.741004,17.687076,17.995271,17.596342,16.518033,14.347242,12.078136,17.727227,17.988385,17.604565,16.515858,14.432907,17.352954,17.678179,17.479143,16.519916,17.597259,16.521581,10.687818,16.050057,15.557483,14.836864,13.71781,12.298844,11.329428,16.057864,15.565023,14.864616,13.792152,12.34347,16.126392,15.635573,14.938128,13.818996,14.83544,13.6896,10.3835
464,105.0,8.158654,8.099831,8.011161,8.143239,8.404395,8.768665,8.176382,8.11458,8.203717,8.146684,8.321491,8.203466,8.202055,8.222721,8.114552,8.062442,8.109504,9.106474,18.162701,18.271307,17.957393,17.104845,15.52765,13.884506,18.192891,18.244481,17.896232,17.019172,15.476987,17.667201,17.839046,17.702666,16.922036,17.964625,17.129391,12.661792,14.994178,14.577194,13.971926,12.978576,11.74604,10.714092,14.99549,14.567093,13.98231,13.019144,11.566775,14.914657,14.493019,13.890187,12.896293,13.983209,13.00939,9.829782
467,105.0,24.919266,25.382335,25.85973,26.345625,27.038123,26.29316,24.903816,25.409221,25.735499,26.368101,26.626202,24.698861,25.1385,25.509177,26.046323,25.771951,26.392858,26.509028,13.367038,13.189665,13.215418,13.636291,14.606551,15.723781,13.381748,13.150988,13.257009,13.618575,14.42699,13.423237,13.24784,13.227401,13.482516,13.241311,13.637492,16.893082,18.603885,18.95713,19.416745,20.224549,21.360389,21.925331,18.610441,18.9334,19.405353,20.210284,21.173758,18.458023,18.801203,19.27694,20.062905,19.441946,20.261822,22.860003
470,105.0,8.236921,7.900079,7.696908,7.163735,6.531913,7.607508,8.266317,7.919252,7.612952,7.051101,6.897956,8.24115,7.826613,7.555399,7.151749,7.67921,7.226099,7.607903,13.449304,13.733899,13.407288,12.466187,10.487089,8.421137,13.425119,13.645302,13.400997,12.429281,10.487923,13.54163,13.746888,13.409153,12.415064,13.443727,12.476628,7.151468,12.468247,11.985652,11.241243,10.102422,8.5506,7.507075,12.478111,11.964896,11.270107,10.088727,8.618691,12.508768,12.013519,11.29046,10.129331,11.264569,10.090777,6.454575
484,105.0,16.560182,16.987882,17.239184,17.788622,18.247967,17.233097,16.540125,17.007754,17.230946,17.647096,18.171612,16.345255,16.8041,17.105973,17.630621,17.223246,17.695225,17.577264,6.099668,6.088264,6.098008,6.170977,6.743196,8.312989,6.123423,6.080812,6.077225,6.161108,6.884467,6.300613,6.223966,6.136764,6.189135,6.10468,6.155958,9.337328,7.484283,7.873456,8.397081,9.375673,10.760308,12.142193,7.511538,7.839474,8.4247,9.320594,10.848212,7.523191,7.884851,8.439663,9.385033,8.43564,9.400705,13.374996
490,105.0,9.492364,9.07742,8.793879,8.322481,7.882454,9.194152,9.49012,9.115526,8.832249,8.404326,8.436623,9.706901,9.417267,9.190412,8.740047,8.773667,8.272864,9.056997,4.535785,4.849021,4.582537,3.906957,2.986492,3.530543,4.525568,4.816851,4.582535,3.915416,3.143231,4.521458,4.819011,4.578826,3.928147,4.618721,3.922786,4.490564,5.55883,5.219847,4.737259,4.048986,3.805448,4.281654,5.566329,5.215744,4.736454,4.143685,3.913826,5.676658,5.318175,4.830645,4.219781,4.742443,4.053056,4.799647
495,105.0,11.343163,11.405928,11.449724,11.556797,11.761242,11.631308,11.321881,11.398294,11.41884,11.534545,11.813024,11.102395,11.274329,11.357137,11.515147,11.481667,11.644453,11.970843,3.593278,3.650884,3.666173,3.710299,4.338279,5.966831,3.572667,3.634345,3.656634,3.780652,4.401722,3.588141,3.654731,3.719658,3.798055,3.692506,3.750024,7.432941,4.860151,4.780584,4.724144,4.807119,5.350913,6.266748,4.849377,4.75371,4.722635,4.804453,5.433574,4.833803,4.766949,4.736573,4.836126,4.736053,4.82415,7.243082
506,105.0,7.305073,6.951902,6.694566,6.606568,7.169826,8.191505,7.309922,6.999049,6.64867,6.743623,7.754123,7.530474,7.142041,6.90273,7.053195,6.619186,6.542108,8.390914,10.214276,10.453302,10.200155,8.890293,6.560613,4.809022,10.186579,10.484683,10.148815,8.824857,6.580911,10.079755,10.335055,10.011948,8.801472,10.22766,9.005378,3.954732,6.164799,5.825934,5.378832,4.660974,3.823106,3.4271,6.171293,5.841657,5.393638,4.677144,3.781317,6.231171,5.885871,5.413406,4.662897,5.365598,4.627243,3.348718
531,105.0,9.003899,8.745766,8.586718,8.379447,8.276275,9.301907,8.994536,8.723855,8.584141,8.535458,8.776765,9.129752,8.964117,8.917393,8.838453,8.627735,8.408704,9.329484,17.231498,17.610494,17.493812,16.819061,15.139782,13.105266,17.231028,17.619145,17.510545,16.829279,15.138917,17.311097,17.6664,17.524284,16.812733,17.496114,16.8053,11.647784,17.458029,16.988015,16.276283,15.119547,13.567038,12.510984,17.476794,16.992665,16.269899,15.171041,13.630252,17.548144,17.061019,16.34795,15.207088,16.270471,15.119566,11.319386
534,105.0,14.076853,14.340035,14.517356,14.995024,15.463351,15.322215,14.080034,14.339716,14.551624,14.912511,15.536145,14.071919,14.305958,14.493398,14.891039,14.515845,14.905753,15.761849,9.057461,9.041959,9.034413,9.127139,9.438635,9.892338,9.104843,9.056091,9.060747,9.19883,9.38861,9.3688,9.327322,9.119916,9.15676,8.994786,9.080584,10.781154,7.361291,7.526247,7.798031,8.359013,9.462352,10.317194,7.37156,7.523733,7.789541,8.358983,9.366017,7.315223,7.468472,7.717323,8.2805,7.801006,8.351973,11.508497
536,105.0,12.542657,12.88757,13.217049,13.678333,13.997012,12.948557,12.494997,12.873742,13.223147,13.654401,13.926781,12.429468,12.813926,13.138649,13.645169,13.217073,13.753813,13.231458,8.775643,9.122058,9.173466,8.77287,8.045479,7.584455,8.746998,9.090161,9.207588,8.863301,8.005409,8.742766,9.141944,9.317991,8.880379,9.194347,8.764324,7.371747,8.088465,7.925555,7.777072,7.63711,7.481921,7.529606,8.086851,7.928117,7.789049,7.57168,7.464069,8.053318,7.880561,7.721553,7.546211,7.787923,7.634767,7.781529
541,105.0,14.176959,14.294051,14.501972,14.66776,15.04379,14.855837,14.252783,14.32109,14.486317,14.751325,14.889774,14.096968,14.190295,14.433213,14.618534,14.436253,14.533103,15.080656,6.098389,6.113302,6.129482,6.142218,6.395135,7.069874,6.135062,6.109848,6.126976,6.169868,6.509028,6.310571,6.305645,6.311816,6.257644,6.135635,6.163591,7.661298,7.833033,7.827065,7.85598,7.992799,8.276509,8.644725,7.830192,7.82391,7.856177,7.945928,8.276816,7.779556,7.774494,7.806803,7.948579,7.868804,8.022145,9.206037
569,105.0,19.915386,19.243077,18.662641,17.700933,16.841662,17.088608,19.892772,19.245946,18.660925,17.771663,16.547697,19.823675,19.205936,18.573973,17.622277,18.654333,17.757403,16.569729,5.433916,5.691006,5.658963,5.226737,4.349936,4.502234,5.383551,5.716104,5.64192,5.16324,4.46314,5.491694,5.727171,5.705703,5.204653,5.655353,5.195014,4.924136,10.328456,9.882825,9.284869,8.413517,7.40875,6.929889,10.329897,9.880499,9.314632,8.412151,7.410749,10.303023,9.859155,9.288625,8.399751,9.282353,8.363678,6.277203
571,105.0,20.113505,20.284917,20.260464,20.447511,20.46012,18.526757,20.109645,20.247627,20.241677,20.245948,20.393571,19.878329,20.02168,19.993486,20.173601,20.304199,20.527219,18.625068,8.612582,8.502996,8.602431,9.128156,10.794376,12.816029,8.623685,8.498362,8.561829,9.252358,10.799117,8.830524,8.590218,8.66405,9.257826,8.601227,9.139904,14.596351,10.051738,10.534375,11.238087,12.398446,13.983177,14.986566,10.047331,10.517245,11.215941,12.375602,14.091874,10.062615,10.543405,11.260339,12.461349,11.252553,12.434009,16.320527
577,105.0,13.313024,13.260803,13.295676,13.465685,13.438209,13.603213,13.311757,13.271238,13.388774,13.347002,13.528594,13.331604,13.329789,13.354058,13.428585,13.239407,13.245719,13.707879,6.363737,6.581777,6.372385,5.668314,5.166865,5.478219,6.350434,6.63599,6.345355,5.729563,5.218709,6.406921,6.613958,6.408636,5.751278,6.348135,5.716392,6.149438,6.049976,5.64122,5.052981,4.099832,3.238491,3.078416,6.063425,5.646435,5.040565,4.166374,3.209739,6.143827,5.724599,5.138753,4.195627,5.038546,4.086947,3.534712
579,105.0,10.463841,10.359244,10.298216,10.088696,10.093228,10.418504,10.458624,10.373035,10.237612,10.254632,9.837297,10.449172,10.320858,10.231122,10.047442,10.294979,10.188744,10.248344,18.385759,18.778515,18.590785,17.529922,15.328297,13.263206,18.375176,18.728488,18.557282,17.495582,15.364084,18.282963,18.680684,18.511849,17.495047,18.625526,17.610175,11.502373,20.823162,20.284281,19.572256,18.301613,16.584374,15.593646,20.808574,20.302783,19.565504,18.374383,16.603102,20.895076,20.373803,19.645427,18.388574,19.54895,18.280401,14.188976
590,105.0,14.350052,14.345871,14.310225,14.335909,14.339752,13.915655,14.358868,14.299639,14.315205,14.34486,14.241101,14.307996,14.303713,14.294775,14.314892,14.334139,14.264989,13.865138,2.701712,2.690917,2.686111,2.945571,4.190299,6.145347,2.73076,2.667541,2.714305,3.002005,4.234852,2.871573,2.774813,2.802317,3.014718,2.721991,2.935663,7.686301,3.784996,3.916716,4.153374,4.660708,5.818784,6.835075,3.778298,3.908644,4.125652,4.642673,5.764643,3.694614,3.812215,4.06505,4.630234,4.15282,4.712239,8.081798
597,105.0,19.346485,19.916392,20.262127,20.873005,21.553829,20.841333,19.357031,19.944823,20.253491,20.848632,21.798393,19.495269,19.974719,20.286862,20.994189,20.241384,20.801948,21.474994,13.639842,13.597873,13.695931,13.864419,14.529951,15.954929,13.626093,13.645447,13.649416,13.830331,14.554993,13.762918,13.692622,13.687846,13.885854,13.653323,13.855931,17.179603,15.617631,15.821563,16.169396,16.832835,17.944019,18.96988,15.603463,15.85574,16.198384,16.819187,17.996383,15.590429,15.813168,16.132374,16.832166,16.133645,16.762696,20.083521
602,105.0,24.891096,24.322251,23.989059,23.375391,22.55462,23.588191,24.939824,24.312122,24.109454,23.438959,22.583463,24.98642,24.412514,24.139489,23.392745,23.997796,23.178832,22.959923,11.110547,11.250341,10.94375,10.153473,8.623615,6.993038,11.13482,11.266361,10.940513,10.167771,8.63227,11.238445,11.342603,11.010144,10.176079,10.962474,10.156794,6.072918,16.494849,16.034503,15.344413,14.184721,12.546832,11.238811,16.520827,16.028255,15.338472,14.238767,12.578779,16.589638,16.107432,15.425988,14.27882,15.348713,14.197296,9.949128
607,105.0,12.289814,12.489744,12.702514,12.995771,13.319864,12.734913,12.255414,12.537482,12.687294,13.071189,13.299847,12.315612,12.537501,12.799988,13.115761,12.687696,12.934276,12.927052,11.246341,11.307371,11.090779,10.525581,9.846184,9.215986,11.286555,11.293988,11.058908,10.59375,9.758357,11.37361,11.387153,11.120869,10.537376,11.146549,10.679263,8.909313,9.725573,9.520865,9.284977,8.972951,8.621287,8.539144,9.713084,9.518056,9.286924,8.997683,8.653254,9.782953,9.595238,9.353277,9.027385,9.288027,8.975151,8.418602
608,105.0,7.020968,7.131204,7.260586,7.344385,7.528824,7.909155,7.06053,7.144406,7.233115,7.381618,7.667827,7.199356,7.32844,7.387528,7.483191,7.239665,7.309274,8.113322,19.050054,19.222976,18.805745,17.511365,15.231438,13.694879,19.054867,19.201702,18.739036,17.379677,15.35036,18.84663,19.051937,18.585097,17.38997,18.784998,17.517746,12.125014,14.763024,14.308942,13.676097,12.69666,11.305393,10.604304,14.77113,14.311786,13.718848,12.72493,11.283738,14.849833,14.384468,13.74281,12.698787,13.678031,12.654244,9.462406
617,105.0,12.662903,12.421998,12.23751,11.72494,11.381856,11.362405,12.649542,12.461435,12.182762,11.974756,11.498294,12.84232,12.610912,12.433683,12.051907,12.219649,11.788779,10.987303,11.121061,11.507868,11.306668,10.40747,8.46828,6.408409,11.101697,11.517313,11.280825,10.349261,8.420874,11.021355,11.50243,11.263545,10.355617,11.284755,10.436945,5.121667,12.220174,11.722904,10.979199,9.74953,8.257253,7.258392,12.217506,11.725355,10.933071,9.79775,8.283489,12.237089,11.741129,10.994474,9.824602,10.980149,9.805082,6.213005
642,105.0,8.643595,9.083792,9.419907,9.77884,10.040405,9.654942,8.614379,9.044873,9.34615,9.671647,10.068295,8.794412,9.093709,9.288179,9.664044,9.41277,9.87371,9.779874,4.450703,4.503701,4.637118,4.549749,3.884515,3.944262,4.420681,4.52432,4.594437,4.412623,3.803108,4.371695,4.458898,4.570249,4.313511,4.612919,4.54483,4.62139,4.693164,4.554681,4.380123,4.333698,4.505122,4.69788,4.704043,4.527828,4.376474,4.282451,4.497554,4.606772,4.467301,4.346267,4.300165,4.40797,4.375653,5.29205
652,105.0,11.185175,11.456997,11.593514,12.053641,12.396392,10.632817,11.161452,11.408658,11.575411,11.974231,12.307827,11.04753,11.40053,11.562363,12.027554,11.674309,12.174688,10.824619,16.770284,16.446503,16.809127,17.79406,19.761483,21.68661,16.750204,16.476233,16.843293,17.969171,19.790553,17.05241,16.709388,16.959481,17.941396,16.774818,17.738659,23.33861,17.856606,18.349299,19.030786,20.131472,21.734423,22.601932,17.853403,18.345248,18.969914,20.115981,21.719667,17.787286,18.27828,18.957099,20.114592,19.038254,20.212057,23.887497
653,105.0,17.432589,17.892804,18.123994,18.803285,19.483382,18.288881,17.4103,17.810567,18.059031,18.625784,19.379992,17.195001,17.628392,17.883265,18.558573,18.196524,18.957116,19.078866,3.594292,3.781347,3.787399,3.687866,3.927024,4.983544,3.610932,3.818275,3.7773,3.691309,3.937907,3.91007,4.046776,3.958576,3.733602,3.742464,3.709161,6.006977,4.655306,4.77679,4.984181,5.615359,6.663876,7.679955,4.668289,4.754167,4.971317,5.539923,6.650585,4.639158,4.705994,4.946329,5.54258,5.026722,5.654228,8.82173
654,105.0,22.378359,22.686471,22.836355,23.178213,23.327796,21.665041,22.364883,22.645987,22.827006,23.055405,23.173902,22.246238,22.557482,22.737589,22.982148,22.837241,23.225831,21.819654,8.021047,7.884158,8.073622,8.583967,9.902817,11.5717,8.032474,7.920859,8.051064,8.67666,9.995321,8.134993,7.965586,8.126576,8.661946,8.04699,8.557532,12.834417,11.031932,11.380567,11.907718,12.784551,14.003856,14.805044,11.022611,11.387034,11.883738,12.749514,14.05889,10.990953,11.359402,11.886722,12.789706,11.906035,12.815246,15.841821
671,105.0,8.808797,8.570393,8.381715,7.923618,7.480797,7.962816,8.833519,8.587198,8.263886,7.879762,7.72438,8.843854,8.573285,8.404849,8.084106,8.355554,7.992292,7.980336,16.074226,16.587424,16.327803,15.201994,12.925,10.508175,16.075898,16.562965,16.309208,15.18988,13.024993,16.064314,16.537539,16.330707,15.267158,16.335687,15.210542,8.987922,13.345572,12.827443,12.080682,10.91761,9.297785,8.123413,13.351862,12.837264,12.106335,10.895806,9.340428,13.367362,12.845229,12.102073,10.919123,12.069039,10.892707,7.13273
685,105.0,13.215092,13.121095,13.070991,12.933196,12.80485,13.800671,13.207227,13.130859,13.071416,12.830546,12.954893,13.221332,13.11111,13.09644,12.955602,13.014005,12.907884,13.8682,6.90535,6.945372,6.876478,6.701207,6.617884,6.876372,6.873887,6.900492,6.889452,6.673379,6.648946,6.879986,6.880834,6.812748,6.702914,6.911204,6.73206,7.184368,4.610666,4.343015,4.029929,3.743836,3.753252,3.964982,4.588754,4.326244,4.048436,3.771813,3.721369,4.560232,4.316929,4.033609,3.76318,4.056632,3.751457,4.342583
722,105.0,8.08939,8.145592,8.156053,8.422673,8.498271,8.411007,8.097932,8.14992,8.26659,8.386989,8.625287,8.061873,8.13901,8.277808,8.515426,8.141975,8.262641,8.4839,10.508779,10.255211,10.521298,11.238947,13.024163,15.259938,10.504433,10.261356,10.48287,11.237377,13.088463,10.377915,10.128909,10.446464,11.258046,10.50705,11.243765,16.864408,8.942052,9.278829,9.783007,10.691427,12.083525,13.232127,8.945379,9.274011,9.775286,10.601581,12.106041,8.899726,9.220113,9.724785,10.625293,9.785987,10.676159,14.526087
728,105.0,12.653331,12.508779,12.48006,12.389085,12.252476,13.501161,12.672515,12.514431,12.544134,12.371297,12.119397,12.701191,12.507128,12.496073,12.255478,12.452487,12.236272,13.424726,4.900567,5.015407,4.860835,4.456016,3.841651,4.137112,4.924054,5.056403,4.909338,4.367122,3.84644,4.892861,4.95049,4.840665,4.466176,4.847491,4.36002,4.790841,5.819019,5.569544,5.278142,4.776483,4.300066,4.331837,5.835462,5.604741,5.248289,4.762336,4.393958,5.83566,5.563912,5.228679,4.781485,5.232385,4.781701,4.23163
734,105.0,12.622598,12.137212,11.392114,10.131066,9.162599,9.761786,12.638625,12.142088,11.316967,10.252938,8.929708,12.58663,12.025665,11.208832,10.044883,11.410156,10.193467,9.228935,7.391825,7.72063,7.729193,6.952931,5.038662,3.597926,7.443415,7.695321,7.672891,6.867286,4.985297,7.112655,7.456403,7.529902,6.79785,7.73699,6.99139,2.791566,12.269934,11.739499,10.980319,9.715879,7.925936,7.057225,12.280158,11.730837,10.984787,9.701872,7.906215,12.249737,11.70414,10.950187,9.674585,10.996704,9.737155,5.852554
740,105.0,17.33108,16.794243,16.61767,16.108628,15.518184,16.553416,17.322791,16.820675,16.700138,16.221901,15.358262,17.380706,16.868665,16.652303,16.034779,16.60755,16.022059,16.161426,9.4382,9.666807,9.368695,8.573519,7.055945,5.678805,9.446374,9.638386,9.387483,8.58375,7.059484,9.359984,9.609103,9.359585,8.571156,9.384761,8.551503,5.279395,12.220748,11.793186,11.157542,10.132049,8.741866,7.625734,12.237077,11.790236,11.176012,10.208897,8.675331,12.26181,11.817858,11.186706,10.136414,11.159928,10.102369,6.78167
741,105.0,18.588892,19.03882,19.360597,19.930756,20.924477,19.803809,18.593928,19.054713,19.312122,19.993997,20.786915,18.51236,18.923474,19.21446,19.850654,19.338445,20.008165,20.643455,7.530879,7.666326,7.582208,7.1348,6.443098,6.384268,7.502013,7.724381,7.539346,7.120986,6.45329,7.478505,7.663414,7.552045,7.15481,7.543568,7.126842,6.769619,7.973952,7.919156,7.90114,7.940268,8.347862,8.892867,7.972835,7.934248,7.891215,7.876002,8.31299,7.968295,7.916841,7.873139,7.892008,7.883743,7.929124,9.55163
752,105.0,10.720651,10.526246,10.31252,10.260058,10.10231,9.972055,10.715534,10.508574,10.282679,10.052153,10.171951,10.715092,10.525053,10.294882,10.188554,10.322423,10.234893,10.192367,17.527095,17.702445,17.457591,16.461215,14.424791,12.571935,17.532528,17.702703,17.495921,16.46553,14.419825,17.424169,17.598614,17.365069,16.402506,17.499871,16.547893,11.003492,16.943357,16.484041,15.842065,14.772732,13.443225,12.760269,16.949035,16.498598,15.865014,14.770735,13.401788,16.992656,16.518375,15.855647,14.722283,15.828896,14.742057,12.00441
755,105.0,10.777238,11.520694,12.620508,14.371942,16.242469,16.163903,10.759117,11.569706,12.656825,14.359339,16.293117,10.779601,11.547112,12.628754,14.377221,12.593834,14.394715,16.593924,5.550386,5.15634,5.251883,6.373441,8.742184,11.257093,5.560773,5.133072,5.302506,6.442331,8.730599,5.687641,5.20926,5.293551,6.414383,5.283968,6.35619,13.158098,8.572428,9.024294,9.643992,10.663488,12.139518,13.32194,8.57509,9.032241,9.611616,10.618182,12.074575,8.45221,8.90128,9.511753,10.565227,9.636365,10.692152,14.443723
760,105.0,21.741854,22.047781,22.250068,22.649753,23.458242,21.744365,21.705876,22.057023,22.122649,22.712115,23.173291,21.517559,21.877605,22.027582,22.490005,22.29045,22.842662,22.30313,3.244047,3.017511,3.196156,3.766075,5.144573,6.785005,3.237478,3.054699,3.187145,3.785908,5.101155,3.592983,3.325514,3.422504,3.855636,3.169485,3.747331,8.205373,6.009541,6.489272,7.240201,8.324878,9.899857,10.810971,6.007225,6.498626,7.166789,8.322688,9.811521,5.928081,6.391137,7.112828,8.256391,7.234584,8.404575,12.023399
762,105.0,9.534538,9.548661,9.626241,9.702311,9.952972,9.83642,9.510115,9.568919,9.596305,9.754767,10.014319,9.551428,9.58752,9.57142,9.755922,9.641354,9.748556,10.135436,14.271142,14.50128,14.273705,13.416891,11.762878,10.333509,14.234713,14.484355,14.238319,13.332275,11.696525,14.139831,14.382059,14.156635,13.278625,14.276865,13.445115,9.312342,15.452076,14.966961,14.341143,13.303583,11.995458,11.376569,15.432005,14.998376,14.352796,13.306842,11.989836,15.47508,15.007448,14.349064,13.294984,14.30913,13.2708,10.615081
775,105.0,21.49325,21.47406,21.419747,21.539843,21.555019,21.322483,21.521425,21.419503,21.422413,21.473595,21.717822,21.613349,21.551806,21.563252,21.673611,21.491082,21.538541,21.284203,10.01819,9.775038,9.73375,10.206247,11.87523,13.892953,10.109976,9.793812,9.7428,10.342535,12.049064,10.226343,9.934578,9.955136,10.494428,9.733203,10.183152,15.511563,10.6457,10.869466,11.196528,11.724632,12.58197,13.21365,10.664137,10.87777,11.185358,11.70623,12.578267,10.620601,10.830148,11.145372,11.691681,11.177877,11.707298,14.088568
783,105.0,14.001228,13.973914,13.925712,14.070712,14.199504,13.148389,13.996219,13.998428,13.921127,14.034251,13.753184,13.917518,13.867724,13.718336,13.657904,13.904645,13.989354,13.267829,10.579338,10.67813,10.598052,10.107336,9.193474,8.403309,10.604463,10.737272,10.656575,10.042198,9.076538,10.482613,10.596427,10.402547,9.904534,10.573313,10.081245,7.899192,9.995299,9.827999,9.588327,9.222856,8.764505,8.492842,10.013457,9.831846,9.595837,9.211617,8.685025,9.975981,9.796496,9.544712,9.147457,9.58318,9.210003,8.360414
795,105.0,10.987243,11.416613,12.073807,13.221764,14.606045,13.830346,11.020375,11.431414,11.9707,13.124096,14.562956,10.982694,11.414782,12.04191,13.152164,12.044023,13.336194,14.580092,7.883898,8.134518,7.752046,6.38801,4.25924,3.137186,7.876839,8.061259,7.711101,6.439388,4.406288,7.734967,8.007308,7.704615,6.484147,7.754566,6.476204,3.124587,5.26767,4.909873,4.479374,3.891205,3.270223,3.267658,5.24942,4.912734,4.525855,3.872258,3.303989,5.315292,4.994995,4.558768,3.866044,4.474871,3.857275,3.646729
808,105.0,52.288417,53.180235,54.250845,55.639214,56.81201,55.608479,52.299896,53.197852,54.209729,55.576968,56.957293,52.12468,53.052397,54.103855,55.592423,54.245604,55.652474,56.179595,24.657746,24.370423,24.320224,25.035866,27.060132,28.848191,24.636712,24.395947,24.349337,25.106012,27.07649,24.692336,24.315808,24.300906,25.146977,24.322602,25.011356,30.671271,32.852499,33.415625,34.167352,35.434883,37.150133,38.172005,32.860091,33.409758,34.147431,35.352102,37.150746,32.761056,33.314979,34.068463,35.351954,34.173484,35.461887,39.625536
812,105.0,14.455454,14.308472,14.150228,14.006795,14.011479,14.569465,14.47504,14.300465,14.176454,14.198881,14.102222,14.426924,14.308014,14.244832,14.186446,14.183432,13.929454,14.361863,8.611279,8.626439,8.525034,8.317982,8.23923,9.005274,8.607524,8.614942,8.481469,8.343426,8.289413,8.565546,8.575089,8.528408,8.351396,8.538341,8.388326,9.980887,9.152467,9.127679,9.084983,9.070029,9.237471,9.450565,9.155826,9.1108,9.070487,9.124593,9.237323,9.190299,9.166672,9.149631,9.143478,9.099141,9.101568,9.952038
820,105.0,15.077145,15.443648,15.858806,16.610861,17.237861,15.49967,15.075565,15.426232,15.843744,16.555506,16.986625,14.974106,15.299109,15.68124,16.339917,15.90254,16.659175,16.054212,8.689951,8.438321,8.511781,9.148651,10.284801,11.347628,8.636325,8.44112,8.512886,9.103577,10.277652,8.627473,8.472079,8.539341,9.151352,8.519466,9.100997,12.786764,8.797164,9.095432,9.558528,10.369478,11.468762,12.102484,8.765833,9.108226,9.573535,10.268101,11.495626,8.67933,9.007074,9.464483,10.252201,9.543767,10.328964,13.220714
825,105.0,21.051863,21.66285,21.96167,22.508616,22.990776,21.886814,21.071126,21.639375,21.79903,22.286982,23.200458,20.870656,21.403251,21.734632,22.419566,22.019766,22.682135,22.453482,8.723878,8.845287,8.883166,8.75654,8.53038,8.53641,8.723121,8.83383,8.859097,8.776144,8.437627,8.79832,8.903747,8.887174,8.757625,8.875546,8.751269,8.627695,8.820382,8.911289,9.057966,9.350925,9.861063,10.360911,8.816503,8.919503,9.051855,9.331569,9.805876,8.761945,8.836597,8.969459,9.285991,9.051249,9.351132,11.099455
829,105.0,8.642575,8.859355,8.958544,9.357543,9.840188,9.993647,8.656467,8.831423,9.04254,9.420254,10.097053,8.741148,8.946459,9.138164,9.520479,9.021817,9.35013,10.422753,15.071664,15.417048,15.196281,14.41883,12.704029,10.793512,15.095955,15.426443,15.22334,14.36936,12.717535,15.070427,15.41803,15.198882,14.329604,15.195351,14.376538,9.678506,12.362311,11.961283,11.39436,10.57327,9.425285,8.74428,12.359063,11.972081,11.442629,10.557781,9.455755,12.390374,11.993653,11.423513,10.567884,11.382824,10.493735,8.194783
834,105.0,9.937147,10.354161,10.405219,10.768226,11.383977,10.662883,9.929052,10.298036,10.400452,10.720859,11.438922,9.850666,10.218501,10.343934,10.772829,10.4997,10.850391,11.284958,9.974459,10.201084,9.787672,8.631189,6.585062,4.942878,9.94728,10.217243,9.78734,8.648585,6.633269,9.835416,10.089485,9.723716,8.643303,9.750634,8.58077,4.339384,6.358141,6.195684,6.019676,5.818816,5.73867,5.930656,6.346219,6.209522,6.036292,5.785829,5.734345,6.324627,6.180098,5.99058,5.754646,6.003974,5.782429,6.292162
835,105.0,5.974037,5.922968,6.029491,6.159273,6.655225,7.53701,5.963038,5.979868,6.089979,6.35317,6.879675,6.184535,6.183109,6.306106,6.487314,5.961083,6.039456,7.790491,19.101056,18.875204,19.022503,19.7836,21.483026,23.289719,19.15944,18.854019,19.033465,19.796311,21.475884,19.227423,18.869908,19.013438,19.753708,19.023371,19.81474,24.778824,10.808964,11.255021,11.928894,13.067003,14.530996,15.481408,10.830379,11.231874,11.924538,13.016483,14.560092,10.751575,11.190976,11.89546,13.038086,11.960853,13.111266,16.698988
838,105.0,11.336516,11.788679,11.988272,12.474617,13.108784,12.666238,11.304897,11.74785,12.054685,12.523755,13.296783,11.299214,11.767926,12.06311,12.636154,12.018003,12.457006,13.0528,13.041882,13.322147,13.146932,12.345288,10.319954,7.958218,13.005472,13.323159,13.142958,12.223036,10.228382,12.982873,13.258797,13.008571,12.166661,13.153625,12.331967,6.491683,8.677418,8.174029,7.48364,6.379981,5.23762,4.679444,8.675897,8.17365,7.49744,6.403017,5.201284,8.587883,8.080848,7.379732,6.318478,7.483922,6.370931,4.313373
848,105.0,17.734118,17.325012,17.166495,16.668324,16.529716,17.628546,17.757186,17.400459,17.251701,17.115597,16.617988,18.067649,17.690335,17.54308,17.122196,17.074479,16.494312,17.203578,8.767242,8.953019,8.652805,7.774368,6.221626,4.940931,8.787122,8.980182,8.660399,7.738035,6.143978,8.647217,8.888244,8.601682,7.689025,8.651054,7.815139,4.473785,11.237415,10.778898,10.077802,8.988481,7.581602,6.603538,11.252624,10.765684,10.100033,9.076412,7.57421,11.344613,10.874244,10.197756,9.082719,10.090482,8.967742,5.796653
851,105.0,16.751692,16.917006,16.948205,17.068774,17.217577,16.470121,16.768599,16.900837,16.928156,17.009092,17.014097,16.515609,16.64234,16.711759,16.831841,16.973329,17.120083,16.715711,5.715549,5.312171,5.397239,6.053386,7.613432,9.62108,5.692781,5.25569,5.364647,6.03724,7.629266,5.744364,5.34985,5.460494,6.093147,5.408258,6.045528,11.061351,5.780947,6.113934,6.653115,7.702426,9.361794,10.881406,5.779191,6.098275,6.656069,7.63759,9.396858,5.807515,6.114134,6.637297,7.649039,6.671317,7.721952,12.263117
859,105.0,11.010327,11.276365,11.610977,11.910784,12.134364,11.999648,10.998605,11.297988,11.572954,11.755124,12.342811,10.747226,11.071154,11.44537,11.878736,11.628872,12.024304,12.086056,19.847243,20.242573,20.106294,19.305712,17.502461,15.696986,19.813048,20.208869,20.129867,19.304454,17.579238,19.66605,20.115911,20.057557,19.296041,20.120256,19.263993,13.969643,18.047536,17.538795,16.879266,15.750758,14.192603,13.196741,18.036672,17.552074,16.909801,15.805497,14.160186,18.128387,17.630731,16.955418,15.782479,16.86429,15.698532,11.95143
860,105.0,25.429541,24.851011,24.464762,23.852758,23.558803,24.205371,25.421251,24.835323,24.517914,24.053613,23.387453,25.603973,25.01094,24.621172,23.996818,24.471635,23.840245,23.949677,7.417499,7.538641,7.574212,7.414283,7.203697,7.567582,7.388653,7.554714,7.539571,7.387802,7.280285,7.382321,7.568979,7.594464,7.449668,7.562475,7.414118,8.131993,11.847157,11.556689,11.199188,10.644648,9.932574,9.590731,11.830013,11.555448,11.229939,10.625557,9.942032,11.810478,11.545423,11.190082,10.609736,11.208306,10.635261,9.307622
863,105.0,7.257071,7.242365,7.136169,7.135062,7.419532,7.598994,7.278892,7.237503,7.172549,7.204275,7.588001,7.2483,7.238562,7.254484,7.314558,7.17889,7.114891,7.879094,6.374878,6.704102,6.292096,5.215723,3.32914,2.854449,6.408214,6.690801,6.234636,5.173551,3.281506,6.202036,6.524611,6.165653,5.114992,6.284753,5.182375,3.148485,5.62164,5.30336,4.861999,4.315871,3.807027,4.006696,5.626385,5.269325,4.891875,4.314296,3.891496,5.722028,5.373458,4.959277,4.39398,4.897301,4.345114,4.254584
868,105.0,15.121998,15.402122,15.572334,15.8999,16.585868,16.087118,15.112292,15.396889,15.56779,16.115723,16.591293,15.114336,15.44168,15.686944,16.09395,15.568798,15.898819,16.502049,15.274601,14.943653,15.012847,15.398081,16.798352,18.687241,15.262988,14.982855,15.002288,15.405404,16.777646,15.448618,15.046861,15.029338,15.391986,14.951088,15.393204,20.151233,15.845369,16.235243,16.786682,17.691252,18.950431,19.820913,15.861001,16.235182,16.791079,17.638937,18.939252,15.840332,16.21132,16.762309,17.655563,16.789693,17.685658,20.927457
872,105.0,15.668538,15.737348,15.687096,15.767088,15.929546,15.767809,15.660779,15.713062,15.746766,15.876438,16.174541,15.62919,15.786854,15.82074,16.014569,15.721502,15.786505,15.911939,7.792618,8.073045,7.777815,6.825099,5.230224,4.257695,7.801065,8.034795,7.728876,6.810132,5.258065,7.791496,8.033829,7.684568,6.748826,7.765237,6.842383,4.169304,5.720248,5.411778,4.993598,4.507716,4.095327,4.306759,5.726652,5.40927,5.018875,4.59736,4.205698,5.834111,5.53126,5.150126,4.662876,4.998961,4.493058,4.624979
880,105.0,12.591689,12.039862,11.643247,10.945893,10.718021,11.787134,12.596731,12.075341,11.515682,11.115547,10.860472,12.653946,12.092999,11.686273,11.228582,11.588515,11.002334,11.721822,10.744811,11.080289,10.947663,9.999307,8.16313,6.810768,10.746893,11.077347,10.858041,9.990883,8.253906,10.623413,10.988657,10.926431,10.065759,10.950373,10.042936,5.995621,12.776444,12.328446,11.723224,10.63368,9.5026,8.781696,12.797333,12.359127,11.699049,10.769527,9.510221,12.954596,12.498004,11.885273,10.835204,11.689578,10.621653,7.893685
911,105.0,12.898914,13.421118,13.638018,13.876204,14.339653,12.969676,12.917042,13.401264,13.534409,13.894526,14.146555,12.732181,13.163091,13.365393,13.744883,13.668122,14.015755,13.290165,4.590384,4.648164,4.601696,4.563164,4.8977,6.14993,4.577315,4.643173,4.606659,4.595037,5.028479,4.927146,4.849465,4.728656,4.651503,4.59867,4.541644,7.351666,6.743884,6.986317,7.365507,8.127743,9.328935,10.227033,6.751718,6.970997,7.362256,8.108383,9.393446,6.830155,7.057601,7.414371,8.168165,7.377063,8.141752,11.302901
929,105.0,13.782887,13.311586,12.887384,12.145917,11.643195,12.39652,13.780329,13.303296,12.860092,12.346228,11.408398,13.77209,13.218119,12.855197,12.222952,12.901368,12.204412,11.94807,7.23134,7.521947,7.328203,6.642751,5.261877,4.151734,7.235145,7.551384,7.372262,6.687615,5.348786,7.251303,7.558651,7.387228,6.722477,7.338642,6.645947,3.616684,7.467392,7.001782,6.327774,5.363267,4.373132,3.851681,7.469065,6.991537,6.299005,5.440278,4.358384,7.421564,6.958263,6.310681,5.387854,6.341665,5.383829,3.437469
933,105.0,7.838848,7.649764,7.539349,7.409515,7.563619,8.531367,7.824642,7.660677,7.593378,7.545994,7.543725,7.953311,7.787405,7.695921,7.496926,7.552448,7.410503,8.577513,15.88487,16.18866,16.051859,15.297609,13.449079,11.483628,15.862134,16.166412,16.023727,15.232552,13.455432,15.744543,16.107761,16.044232,15.23512,16.067537,15.325663,10.036349,12.209077,11.701596,10.993615,9.874687,8.432502,7.572256,12.198155,11.70806,11.009678,9.872308,8.373576,12.239044,11.740167,11.025884,9.866635,10.992602,9.856199,6.734417
935,105.0,12.58784,12.824458,12.93164,13.098679,13.26372,12.786076,12.596351,12.803906,12.845135,13.03104,13.072948,12.55773,12.750913,12.789634,12.896538,12.930096,13.143917,12.968981,5.693145,5.727707,5.641204,5.574875,6.78981,9.313259,5.695643,5.725071,5.629071,5.61435,6.890413,5.754829,5.743458,5.645176,5.743641,5.643542,5.561577,11.02109,5.990738,6.203387,6.568179,7.466436,9.181355,10.77527,6.008366,6.177437,6.598292,7.47581,9.191331,6.014457,6.226108,6.627569,7.494389,6.602677,7.461759,12.257443
941,105.0,31.993995,32.429638,32.866992,33.559651,34.325793,32.401394,31.963127,32.423574,32.826418,33.616893,34.28033,31.919399,32.441933,32.809322,33.555995,32.849235,33.613811,32.878923,8.839508,8.511252,8.601336,9.362071,11.284974,13.312523,8.807398,8.556319,8.625383,9.403766,11.228059,8.786084,8.489318,8.539411,9.364788,8.581831,9.333574,15.085807,14.980096,15.491893,16.18828,17.465611,19.273767,20.29038,14.97288,15.460162,16.199975,17.467959,19.216066,14.923633,15.440612,16.168048,17.425138,16.222644,17.488514,21.723508
961,105.0,2.57796,2.458459,2.503558,2.818709,3.898011,4.617955,2.559605,2.505514,2.603201,2.861741,4.292197,2.685648,2.583365,2.687877,3.1621,2.47497,2.732864,5.284408,21.796397,22.135455,21.87327,20.702814,18.449015,16.029519,21.807771,22.147787,21.86193,20.620595,18.560985,21.679052,22.07518,21.795395,20.665423,21.855765,20.665499,14.533573,20.370982,19.872301,19.124576,18.007589,16.42205,15.052375,20.359915,19.858834,19.165696,18.014168,16.345389,20.348268,19.857833,19.120945,17.946999,19.14131,17.981472,13.896986
967,105.0,6.610764,6.744027,6.891538,7.246203,7.550575,7.356038,6.580981,6.755726,6.894531,7.175483,7.702097,6.544744,6.731962,6.921995,7.286612,6.894486,7.271146,7.685696,14.783471,15.078464,14.909496,13.942571,11.945769,10.184218,14.793173,15.105524,14.857167,13.896219,11.976797,14.552299,14.894004,14.765748,13.898811,14.905973,13.927576,8.444871,11.633062,11.170187,10.537547,9.461725,8.174896,7.606597,11.633649,11.192972,10.564393,9.504331,8.084355,11.621849,11.159394,10.500304,9.406518,10.508068,9.399532,6.844563
972,105.0,14.337275,14.192857,14.096907,13.925938,13.680318,14.894086,14.361335,14.176996,14.12485,13.922086,13.847108,14.484706,14.309997,14.233228,14.006355,14.081759,13.846548,14.860145,12.128693,11.966718,11.940118,12.121078,12.8915,13.880776,12.14541,11.976058,11.912208,12.180782,12.866215,11.891245,11.731758,11.813219,12.142064,11.970662,12.208795,14.592723,10.440643,10.66161,10.995373,11.508535,12.276072,12.89309,10.43256,10.674128,10.977409,11.523452,12.328913,10.47076,10.698983,11.028762,11.568904,10.984507,11.51193,13.489328
973,105.0,40.183178,40.742343,41.36395,42.393592,43.273212,41.590177,40.176388,40.697206,41.288942,42.170496,42.898295,39.968933,40.454293,40.962623,41.90261,41.409948,42.472467,41.952487,15.337705,15.149132,15.188005,15.787819,16.827307,17.762715,15.379125,15.165313,15.286988,15.692391,16.71359,15.402739,15.217853,15.224893,15.591915,15.180289,15.687432,18.916014,24.528829,24.914379,25.501799,26.510205,28.003883,28.672399,24.51721,24.92484,25.467731,26.466279,27.816299,24.362307,24.75366,25.31725,26.333683,25.492043,26.522714,29.944796
980,105.0,9.157831,9.220841,9.120466,9.167612,9.192632,9.235587,9.161904,9.193374,9.163959,9.074851,9.227613,9.153952,9.170537,9.065342,9.077216,9.140619,9.189655,9.359695,9.544548,9.511269,8.820839,7.424874,5.489028,4.628667,9.541123,9.351453,8.746412,7.474696,5.544842,8.926737,9.085148,8.805067,7.479404,8.896394,7.478042,4.611174,7.923559,7.44675,6.789298,5.681641,4.616647,4.367333,7.914345,7.444036,6.781148,5.751065,4.626795,7.97694,7.494235,6.841685,5.750952,6.794309,5.704231,4.119574
994,105.0,16.474801,16.780721,16.943738,17.438246,17.810783,16.596987,16.466841,16.797135,17.001942,17.296652,17.906523,16.366141,16.71855,16.909013,17.370022,16.919358,17.30466,17.012602,4.60186,4.798846,4.680699,4.394585,4.34078,5.120186,4.646117,4.792683,4.705572,4.423158,4.284848,4.740347,4.815285,4.682252,4.449354,4.674177,4.374754,6.221879,5.78211,5.890196,6.107888,6.631834,7.430908,8.204909,5.779855,5.895691,6.16474,6.572969,7.44738,5.788788,5.900902,6.107414,6.585742,6.095112,6.579776,9.220424
1004,105.0,9.680408,9.734078,9.792333,10.098149,10.528968,10.99149,9.708847,9.755854,9.879178,10.1171,10.798521,9.642875,9.737337,9.891376,10.225484,9.80005,9.967667,11.418529,9.496638,9.686532,9.464399,8.56705,6.942505,5.905165,9.478752,9.646735,9.425469,8.473203,6.857724,9.067104,9.282934,9.192074,8.424446,9.498237,8.686959,5.423514,7.908208,7.515297,7.00609,6.162017,5.488014,5.436566,7.927553,7.563332,7.010781,6.207375,5.496652,8.017466,7.606633,7.03992,6.201082,6.955396,6.098457,5.404437
1013,105.0,9.262382,9.165578,9.065573,8.708493,8.675556,10.006586,9.261839,9.219796,9.055566,8.872129,9.014987,9.509248,9.431128,9.295872,9.10136,9.013842,8.62536,10.060515,20.052544,20.196474,19.820588,18.519554,16.07403,13.996146,20.050072,20.227599,19.78309,18.435262,16.134849,19.939588,20.106889,19.746212,18.507677,19.778728,18.496934,12.02869,14.911009,14.409724,13.711543,12.513287,10.893388,10.259744,14.911345,14.422011,13.723271,12.566557,10.939406,15.003169,14.503413,13.805157,12.596067,13.703024,12.491064,9.031096
1016,105.0,11.11332,11.587426,11.926927,12.354909,12.72961,11.722201,11.109575,11.624704,11.91929,12.292706,12.736302,11.062176,11.466264,11.769387,12.292996,11.92935,12.365911,11.916292,12.700826,13.170297,13.042975,12.168662,10.138601,7.832266,12.720157,13.137052,13.125074,12.173536,10.083675,12.54227,13.081015,13.083853,12.15951,13.045276,12.18601,6.242083,8.141907,7.757341,7.280462,6.527951,5.630582,5.402999,8.151646,7.759604,7.28536,6.544692,5.697947,8.226864,7.837287,7.338408,6.573256,7.280038,6.53587,5.230713
1018,105.0,6.634188,6.52634,6.5509,6.703861,6.675525,6.757275,6.648535,6.52519,6.622858,6.574192,6.512309,6.676293,6.493513,6.463938,6.430673,6.568618,6.624335,6.822088,8.678028,8.456691,8.573073,9.136438,10.683453,12.751134,8.700954,8.497312,8.557895,9.166918,10.736699,8.926195,8.701829,8.713563,9.197061,8.555338,9.133794,14.110712,5.969303,6.237463,6.617675,7.326822,8.524497,9.741016,5.959587,6.228388,6.622244,7.335363,8.573243,5.921558,6.198698,6.605566,7.371694,6.626458,7.331007,10.813186
1019,105.0,14.179939,13.784805,13.366659,12.573106,11.561248,12.574319,14.200188,13.769339,13.452625,12.585378,11.712829,14.330456,13.939487,13.530374,12.688729,13.364041,12.464116,12.056951,7.626722,8.011051,7.799981,6.904192,5.36521,4.686892,7.643232,8.003619,7.774387,6.933738,5.439098,7.624706,8.055283,7.810555,6.972978,7.814633,6.905364,4.369676,11.473324,10.951204,10.23988,9.038118,7.478568,6.691449,11.465941,10.987265,10.259712,9.100894,7.52398,11.579773,11.067072,10.319164,9.110235,10.203325,8.98234,5.885132
1033,105.0,11.378792,11.108104,10.927951,10.619769,10.568206,11.683697,11.357296,11.121811,11.001617,10.780546,10.469005,11.535408,11.26574,11.104221,10.781023,10.926955,10.547419,11.49147,7.687946,7.868071,7.716691,7.4407,7.246944,7.458164,7.693785,7.841651,7.70841,7.456503,7.344331,7.842676,7.96256,7.883075,7.601351,7.73798,7.403198,7.801177,10.734258,10.292769,9.676163,8.784953,7.82856,7.595441,10.736058,10.286471,9.696256,8.773279,7.923504,10.766765,10.331861,9.734322,8.843374,9.695227,8.794775,7.178717
1035,105.0,9.073086,8.708835,8.289584,7.755589,7.588488,8.275065,9.099796,8.710072,8.290274,7.800722,7.458263,9.048046,8.667255,8.244627,7.730327,8.255592,7.742991,8.433588,10.530882,10.817412,10.538464,9.602453,7.756941,6.544309,10.550443,10.757233,10.59754,9.457175,7.819689,10.411006,10.696105,10.43158,9.483457,10.579602,9.650985,5.577276,10.769794,10.377827,9.820798,8.894828,7.832359,7.253573,10.794522,10.383846,9.818799,8.944348,7.781959,10.827183,10.395948,9.82615,8.918523,9.823127,8.911863,6.470621
1042,105.0,15.206731,14.810219,14.625585,14.128086,13.582603,14.346906,15.19881,14.862137,14.639478,14.212727,13.29127,15.230517,14.832561,14.568981,13.958815,14.569467,14.034444,13.832315,10.907885,11.202521,10.983073,10.065474,8.179712,6.225788,10.936546,11.212026,10.968896,10.007038,8.1671,10.779574,11.083784,10.88903,9.974622,10.998294,10.115873,4.933127,12.806412,12.32536,11.678,10.603851,9.06903,8.076462,12.782086,12.337016,11.695417,10.56808,9.078863,12.799565,12.337463,11.674946,10.57981,11.667738,10.577317,6.923567
1075,105.0,8.179265,8.09896,8.115309,7.948424,8.002607,8.446574,8.138533,8.121448,8.04989,7.959115,8.227374,8.432347,8.368525,8.355179,8.21204,8.135079,8.136654,8.803232,4.344346,4.564545,4.394206,3.81578,3.276197,3.983377,4.376223,4.589516,4.351057,3.713946,3.451364,4.355745,4.453159,4.294087,3.732145,4.374714,3.859778,4.73011,4.117277,4.014058,3.91414,3.870555,4.083473,4.473409,4.119541,4.004646,3.863993,3.855982,4.118424,4.123611,4.003584,3.8842,3.893287,3.941781,3.964343,5.163237
1116,105.0,29.53436,29.718144,29.824574,30.087573,30.432065,28.557977,29.530845,29.726807,29.710937,29.982276,30.478262,29.381331,29.568705,29.678048,30.045028,29.81167,30.246733,28.954164,15.145201,14.809359,14.87112,15.743246,17.686239,19.884609,15.127391,14.756634,14.932346,15.815993,17.76524,15.266491,14.932798,14.94602,15.831217,14.930757,15.719869,21.692405,17.09879,17.592563,18.33585,19.491068,21.059294,22.070359,17.096535,17.608809,18.302956,19.421358,21.084985,17.035045,17.528785,18.250119,19.441414,18.318068,19.517672,23.373035
1122,105.0,22.322774,22.579231,22.849283,23.386017,23.722823,22.105679,22.297842,22.59368,22.832414,23.19654,23.647526,22.243792,22.497847,22.718143,23.190165,22.832171,23.342817,22.489179,7.836043,7.781578,7.911303,8.386022,9.295681,10.256531,7.809671,7.769551,7.91375,8.38855,9.3455,8.009922,7.955542,8.113664,8.514561,7.891029,8.328848,11.214146,11.938576,12.204418,12.63309,13.406456,14.495714,15.06431,11.922598,12.199357,12.63391,13.350522,14.405234,11.855103,12.120642,12.524764,13.274852,12.645593,13.42121,16.096772
1132,105.0,20.282241,20.590277,20.79959,21.199538,21.478798,20.875122,20.26618,20.620125,20.835028,21.137286,21.478204,20.262356,20.597805,20.762991,21.086349,20.781855,21.10828,21.123328,15.42589,15.485029,15.288709,14.95896,14.284997,13.451325,15.429057,15.458007,15.332877,14.967148,14.308151,15.359639,15.442569,15.270252,14.959315,15.299076,14.949651,13.111655,18.993315,18.899861,18.726862,18.472988,18.14157,17.692553,18.995184,18.886536,18.727682,18.526305,18.080573,18.99612,18.898285,18.74077,18.484863,18.747375,18.497141,17.465229
1138,105.0,19.832474,20.236686,20.62284,21.256426,22.073995,20.76674,19.831282,20.269861,20.511118,21.348507,22.351535,19.858132,20.272553,20.683512,21.556939,20.620542,21.416006,21.104583,4.457166,4.667732,4.52664,3.90668,3.135141,3.369992,4.489539,4.693418,4.517361,3.892857,3.198012,4.61421,4.768688,4.632266,3.957891,4.506366,3.928364,4.019657,3.994354,4.276805,4.759021,5.755132,7.319138,8.63194,3.968389,4.272954,4.744121,5.68316,7.460843,4.008995,4.303353,4.781961,5.809381,4.767483,5.818739,9.989804
1160,105.0,37.347707,37.68823,37.833825,38.253949,38.577239,36.631005,37.327268,37.616115,37.80746,38.092879,38.478907,37.097541,37.456439,37.656256,38.047888,37.907698,38.482664,37.045884,15.469007,15.138377,15.326328,16.033539,17.653582,19.332271,15.490543,15.155132,15.250243,15.999895,17.602484,15.604247,15.160413,15.234493,15.968738,15.311107,16.063154,20.865678,23.170761,23.66096,24.384546,25.573048,27.012272,27.82945,23.156218,23.654829,24.404014,25.449237,26.978772,23.065402,23.565651,24.290128,25.439799,24.394312,25.563289,29.070966
1163,105.0,16.623968,16.406143,16.156897,15.978749,15.905632,17.108116,16.667516,16.380535,16.278211,16.153468,16.074824,16.909466,16.653223,16.476848,16.222319,16.196816,15.886071,17.008077,5.725512,5.835573,5.957549,6.03929,6.504149,7.725474,5.738484,5.8741,5.960108,6.06357,6.633469,6.016128,6.011277,5.978967,6.08168,5.956271,6.000495,8.886194,8.990782,8.818171,8.589317,8.218284,7.845311,7.697225,8.99746,8.83057,8.633945,8.305352,7.869717,9.133046,8.959406,8.725768,8.315827,8.574194,8.147446,7.771557
1166,105.0,23.760283,23.994389,23.983403,24.252698,24.26482,21.948482,23.730053,23.955949,23.983895,24.11234,23.995569,23.555856,23.774882,23.727764,23.931935,24.066628,24.353939,22.050471,4.963323,4.843066,4.888158,5.351011,6.659372,8.45576,4.973238,4.882693,4.960441,5.438779,6.804788,5.31526,5.101555,5.160223,5.559009,4.885919,5.227158,10.014599,8.08185,8.465043,9.049095,10.025426,11.4569,12.277973,8.076531,8.477484,9.033508,10.022315,11.458581,8.133624,8.521639,9.081548,10.036373,9.030892,10.018295,13.49998
1170,105.0,9.986393,10.400301,10.93729,11.727722,12.725664,12.979298,10.061311,10.471102,10.746926,11.652961,13.110436,10.122196,10.451055,10.874447,11.874007,10.901593,11.85136,13.537363,6.398949,6.69841,6.767996,6.427731,5.751699,5.215064,6.406408,6.735094,6.751529,6.460832,5.692567,6.427578,6.659297,6.733387,6.509332,6.749276,6.393853,5.302347,7.020721,6.777383,6.509103,6.115912,5.669819,5.537987,7.018428,6.796241,6.559292,6.158873,5.661683,7.105599,6.872832,6.577155,6.155531,6.483787,6.056443,5.491098
1179,105.0,26.644926,26.95723,27.176772,27.723228,28.384308,26.90462,26.615846,26.955199,27.147787,27.722811,28.417967,26.676726,26.996195,27.163953,27.710574,27.160679,27.751692,27.381275,9.340129,9.133788,9.334543,10.198923,11.792167,13.301043,9.375029,9.158234,9.365917,10.154556,11.799513,9.657995,9.309813,9.392704,10.203334,9.3416,10.192213,14.786602,15.967556,16.428235,17.041902,18.139831,19.66722,20.451547,15.966969,16.400621,17.001597,18.057467,19.695703,15.849262,16.300043,16.949984,18.076988,17.073492,18.202735,21.827258
1224,105.0,30.12371,30.579699,30.836288,31.268051,31.686018,29.88028,30.108802,30.558266,30.72826,31.038718,31.375352,29.791893,30.14678,30.328954,30.771566,30.86199,31.410855,30.399215,10.226355,9.908638,10.040809,10.611119,12.131833,13.984941,10.23493,9.971919,10.058579,10.695856,12.105174,10.385674,10.078309,10.1455,10.666147,10.014951,10.540893,15.345031,16.998723,17.40611,18.119776,19.143287,20.667364,21.684749,16.969617,17.460112,18.084821,19.145955,20.586813,16.949645,17.386414,18.030514,19.087581,18.071878,19.131022,22.884153
1230,105.0,18.150017,18.572487,18.805367,19.396603,19.894545,18.161288,18.149572,18.543753,18.825606,19.466897,19.917522,18.190594,18.643712,18.928119,19.441689,18.818623,19.35297,18.36778,5.788579,5.999656,5.878111,5.191593,3.953214,3.437548,5.780787,5.975324,5.826552,5.133055,3.916065,5.777007,6.019561,5.866414,5.141886,5.889826,5.177974,3.752216,4.703479,4.83122,5.055503,5.559209,6.504229,7.263424,4.710789,4.837754,5.090246,5.567568,6.546008,4.781004,4.909864,5.12309,5.622623,5.047193,5.506136,8.306311
1231,105.0,9.314954,9.166228,9.082589,8.772811,8.318264,9.950615,9.317737,9.191014,9.085894,8.678981,8.42613,9.394057,9.242051,9.110698,8.729746,9.008841,8.546934,9.92568,9.19179,9.353679,9.070286,8.294196,7.105014,6.614933,9.187178,9.379944,9.025144,8.211507,7.109581,9.066969,9.25026,8.91991,8.171162,9.066342,8.286075,6.487474,9.748566,9.301383,8.715446,7.857039,6.904636,6.683577,9.737567,9.303705,8.708464,7.902453,6.977745,9.795113,9.377613,8.795655,7.943502,8.714038,7.864158,6.232734
1244,105.0,8.194772,8.224085,8.25,8.53635,8.915996,8.033603,8.160209,8.182374,8.218383,8.5321,9.046156,8.075982,8.093349,8.181377,8.643165,8.256683,8.543372,8.45794,5.173909,5.374215,5.245403,4.769589,4.023012,4.00921,5.194851,5.367358,5.209125,4.678451,4.181189,5.057496,5.248489,5.150692,4.74909,5.275484,4.735214,4.472831,5.182498,4.973924,4.712922,4.33724,4.167334,4.390913,5.186728,4.989458,4.722276,4.377562,4.239288,5.348396,5.129412,4.842389,4.445071,4.696127,4.325238,4.69868
1255,105.0,9.085718,9.167905,9.239798,9.626953,10.108554,9.800994,9.086025,9.206451,9.40068,9.701075,9.854099,9.168801,9.293243,9.349755,9.552302,9.237276,9.391685,10.184875,8.44639,8.93233,8.785975,7.918413,6.660654,5.800317,8.471155,8.95339,8.766375,7.997817,6.622646,8.549593,9.01198,8.812662,7.993299,8.778467,7.954237,5.508176,8.470803,8.137699,7.644003,7.066773,6.555066,6.392605,8.479443,8.12663,7.639393,7.047765,6.496726,8.519499,8.171129,7.693985,7.038332,7.657811,7.085709,6.495352
1259,105.0,16.849165,16.614414,16.275535,15.604968,15.227269,15.872518,16.869422,16.630633,16.250449,15.831778,15.332388,16.955754,16.683097,16.296615,15.719185,16.228201,15.614858,15.777923,8.445399,8.570714,8.338477,7.862667,7.553461,7.921794,8.504613,8.575542,8.254859,7.748863,7.527908,8.296338,8.392626,8.280608,7.861387,8.366359,7.879931,8.29835,9.670589,9.591302,9.550415,9.556088,9.687084,9.927086,9.681683,9.617824,9.527306,9.578961,9.772931,9.762513,9.690917,9.639477,9.668392,9.529693,9.555883,10.137644
1261,105.0,8.294624,8.228769,8.287502,8.259973,8.420313,9.576892,8.301831,8.286504,8.259195,8.308717,8.665178,8.367,8.335212,8.367709,8.414276,8.279882,8.235321,9.766715,3.99345,3.969989,3.957782,4.05177,4.67476,6.613662,3.97841,3.959176,3.931978,4.014524,4.991407,4.048939,3.975134,3.924997,4.094963,3.966026,4.001298,8.276421,5.1218,4.997737,4.88694,4.952567,5.317828,5.831425,5.114445,4.997959,4.879153,4.921289,5.448954,5.124181,5.006546,4.936194,4.980249,4.891763,4.930199,6.596778
1263,105.0,16.496653,16.0293,15.646428,15.072264,14.225368,16.275099,16.49555,16.032897,15.752673,15.035083,14.68932,16.674273,16.308005,16.004893,15.336415,15.641002,14.929918,15.831459,6.722084,7.032305,6.954114,6.282608,4.866979,4.383584,6.716904,7.025079,6.984376,6.230065,4.993369,6.563209,6.928354,6.941528,6.329511,6.940469,6.252259,4.278217,10.189253,9.697917,9.042352,8.037582,6.692757,5.899905,10.181144,9.722576,9.073712,8.015205,6.68874,10.229302,9.751697,9.070452,8.009414,9.018117,7.984237,5.153928
1264,105.0,13.470516,13.62713,13.731972,14.069499,14.541421,14.602112,13.478343,13.611582,13.714238,14.022696,14.580016,13.378593,13.516303,13.683662,14.039958,13.757337,14.050498,15.064712,8.831376,8.878285,8.801689,8.568926,8.181342,8.148451,8.843111,8.867129,8.812247,8.555997,8.206535,8.717066,8.672323,8.56634,8.445546,8.819246,8.586402,8.140555,10.162467,10.026412,9.867811,9.731509,9.824078,10.202082,10.149851,10.027883,9.921434,9.787166,9.857976,10.200801,10.082469,9.939812,9.768977,9.863252,9.648957,10.40083
1267,105.0,16.269648,16.129426,16.068325,15.915494,15.681746,16.851656,16.253258,16.11313,16.035877,15.843087,16.050386,16.337836,16.229432,16.243385,16.138997,16.055721,15.859052,16.846455,12.330103,12.823456,12.786122,12.008491,10.199932,8.482251,12.379233,12.816449,12.835524,12.038943,10.206931,12.359601,12.838379,12.786181,12.005153,12.795145,12.005641,7.175398,15.483412,15.059802,14.541334,13.645979,12.364814,11.877014,15.476308,15.093397,14.597535,13.677399,12.509899,15.645032,15.235088,14.696238,13.772088,14.509409,13.545574,10.965146
1271,105.0,10.407357,10.372983,10.459148,10.614384,10.653789,10.53155,10.40588,10.440902,10.51804,10.549067,10.613024,10.513641,10.540385,10.540672,10.587136,10.355273,10.489406,10.640494,8.616412,8.902276,8.78587,8.208609,7.358927,7.487383,8.634415,8.892727,8.805824,8.270466,7.438854,8.920397,9.105371,8.88318,8.238887,8.764906,8.173037,7.640657,8.392911,8.205207,7.977975,7.764799,7.584381,7.819637,8.396448,8.224264,8.017106,7.753636,7.624058,8.502924,8.321817,8.087625,7.810465,7.954661,7.667296,7.996803
1274,105.0,12.194374,12.579066,12.901913,13.479314,14.405414,13.930251,12.186855,12.628862,12.878297,13.436295,14.338964,12.12693,12.551543,12.826715,13.443656,12.862606,13.494548,14.630177,5.504506,5.439726,5.492552,5.868119,7.539043,10.247208,5.50867,5.390407,5.514305,5.906876,7.574722,5.749054,5.62615,5.641345,5.967705,5.530775,5.90565,11.911365,6.863602,7.352682,8.101597,9.305875,11.033095,12.459893,6.879724,7.35887,8.060391,9.242672,10.972873,6.800411,7.274804,7.998687,9.210209,8.088703,9.343223,13.80517
1288,105.0,12.253801,12.289086,12.287668,12.334135,12.215245,13.045736,12.280228,12.289642,12.340615,12.360455,12.347896,12.244311,12.321006,12.372137,12.397158,12.340669,12.311315,12.992566,10.477541,10.504836,10.319124,9.915637,9.60571,9.706228,10.453269,10.478421,10.272068,9.983148,9.630341,10.330061,10.315816,10.192705,9.964294,10.351266,9.934436,9.646473,11.986257,11.907396,11.780157,11.672717,11.616524,11.755428,11.990114,11.89254,11.803359,11.682618,11.60547,12.043766,11.952587,11.832277,11.674408,11.796696,11.679605,11.765934
1293,105.0,9.075558,8.686157,8.498403,8.335423,8.365649,9.074077,9.066909,8.689344,8.59027,8.498654,8.438633,9.273939,8.921066,8.657567,8.455866,8.464853,8.165206,9.131834,15.291766,15.744059,15.838163,15.193926,13.454813,11.568943,15.296751,15.768674,15.766855,15.213425,13.481567,15.289244,15.793888,15.863638,15.256618,15.827508,15.20415,9.928474,18.10728,17.584751,16.866733,15.715436,14.067787,12.921184,18.104856,17.600637,16.928651,15.754516,14.020954,18.198826,17.678843,16.946696,15.72372,16.853434,15.63218,11.604546
1305,105.0,20.599206,20.805606,20.905173,21.128862,21.279882,19.843932,20.597556,20.799281,20.915339,21.171725,20.859597,20.602841,20.816499,20.826645,20.868777,20.908479,21.066263,19.889708,6.184571,6.149437,6.094293,6.245239,6.98675,8.111004,6.197571,6.121028,6.09728,6.211017,6.977487,6.36328,6.272017,6.185615,6.2254,6.130172,6.319665,8.947342,10.987858,11.193286,11.462035,11.96373,12.85568,13.422852,10.98898,11.185967,11.440989,11.979505,12.788499,10.920411,11.122534,11.399311,11.931318,11.473136,11.998931,14.159668
1311,105.0,8.701172,8.772296,8.839704,8.948714,9.057232,9.629608,8.676816,8.805168,8.838521,8.830855,9.667015,8.705095,8.817365,8.914029,9.194797,8.84286,8.976484,9.952499,7.083011,6.768324,7.053261,8.090432,10.036508,12.044045,7.053103,6.811646,7.057775,8.065075,10.14903,7.200629,6.866513,7.064174,8.114342,7.015937,8.040111,13.889534,4.844144,5.236264,5.871385,6.99235,8.445768,9.129925,4.833878,5.269032,5.910292,6.893264,8.511427,4.827959,5.240205,5.840985,6.924658,5.830417,6.914224,10.463542
1314,105.0,10.195191,10.341367,10.542431,10.711331,11.26129,11.383928,10.187808,10.359016,10.489411,10.800728,11.562595,10.211691,10.366118,10.539423,10.977981,10.498493,10.769364,11.780781,12.875309,13.244633,13.049415,12.203971,10.428484,8.405753,12.890153,13.255399,13.037572,12.225503,10.536033,12.851993,13.138748,13.029188,12.367556,13.020284,12.177534,7.056893,9.011529,8.6666,8.192719,7.426237,6.453531,5.916981,9.012171,8.683421,8.188884,7.447766,6.58642,9.150749,8.809014,8.321901,7.570111,8.172104,7.395281,5.298598
1316,105.0,13.40963,13.471822,13.669805,14.142199,14.73175,14.718941,13.38596,13.486348,13.732556,14.164641,14.468201,13.488557,13.578498,13.726886,13.972126,13.665441,14.107631,14.922747,13.845995,14.215648,14.079023,13.256615,11.424005,9.876955,13.884116,14.167709,14.036473,13.156226,11.306501,13.701043,14.015926,13.846418,13.024479,14.094538,13.280319,8.909038,13.858381,13.51636,13.077641,12.306377,11.259534,10.705359,13.861014,13.553409,13.069425,12.281884,11.288441,13.899448,13.554498,13.089222,12.32409,13.044148,12.275826,9.940724
1349,105.0,12.181512,12.504322,12.744118,13.203331,13.641861,12.426966,12.196435,12.506249,12.737,13.087899,13.825553,12.202156,12.48351,12.724606,13.21642,12.761203,13.265384,12.836874,7.386163,7.53267,7.242925,6.318182,4.943339,5.057783,7.360855,7.526099,7.204706,6.204162,5.198463,7.24598,7.368797,7.070666,6.282917,7.236497,6.358333,5.35368,5.802371,5.631339,5.517639,5.533253,5.710734,6.336052,5.796081,5.652422,5.507956,5.457316,5.863582,5.773415,5.624191,5.502804,5.547969,5.481563,5.550388,7.156928
1355,105.0,14.607096,14.761425,14.963708,15.404029,15.961906,15.675337,14.571273,14.731064,14.905122,15.304759,16.086327,14.524756,14.657301,14.783688,15.297093,15.006858,15.457907,16.15094,5.484002,5.54227,5.457869,5.31862,5.421328,5.810994,5.445935,5.531673,5.46005,5.327411,5.324206,5.504995,5.597341,5.52607,5.292565,5.457942,5.315948,6.752435,8.724052,8.743255,8.755954,9.016252,9.800056,10.338741,8.722885,8.720326,8.769815,9.016499,9.71342,8.641932,8.66386,8.703437,8.955904,8.785405,9.024932,11.406695
1357,105.0,14.050598,14.571448,14.879603,15.467403,16.135219,15.508752,14.044029,14.553941,14.8169,15.302116,16.260549,13.919989,14.455936,14.784927,15.355777,14.910628,15.638447,16.289405,5.201787,5.10098,5.229899,5.677309,7.349417,9.706303,5.210265,5.124804,5.21449,5.743326,7.388737,5.305116,5.10366,5.239186,5.728335,5.228091,5.750618,11.283947,8.131996,8.494594,9.004373,9.962146,11.58539,12.943717,8.137537,8.457263,8.986227,9.999411,11.582695,8.153024,8.505193,9.044037,10.000057,9.038289,9.99168,14.315185
1358,105.0,8.325736,8.347557,8.439477,8.73189,8.774785,8.509865,8.29906,8.400497,8.472214,8.547298,8.948809,8.275784,8.289651,8.333023,8.619501,8.393586,8.63279,8.809154,10.029671,10.026286,9.915032,9.556921,9.344171,9.653625,10.038524,10.005348,9.866784,9.621191,9.471497,10.007788,9.994667,9.911679,9.62132,9.932058,9.596176,9.901353,7.805402,7.81842,7.860178,8.128053,8.802646,9.479473,7.818437,7.825,7.877937,8.142858,8.920365,7.94607,7.954333,8.004618,8.264757,7.846908,8.086539,10.199393
1374,105.0,14.628187,14.01513,13.620748,12.911609,12.19774,12.928162,14.626562,14.000465,13.651463,13.129994,12.099467,14.730542,14.129126,13.820707,13.117355,13.628623,12.90136,12.208405,13.556192,13.765939,13.5635,12.90067,11.329259,9.377402,13.5766,13.730511,13.531316,12.869379,11.278748,13.415395,13.717187,13.609122,12.889164,13.598676,12.9265,8.120842,12.916009,12.499125,11.887683,10.836626,9.368695,8.151202,12.937057,12.506715,11.871712,10.857711,9.312922,12.925133,12.486316,11.861039,10.82076,11.876685,10.846471,7.029578
1375,105.0,12.067786,12.139388,12.193594,12.395965,12.654536,12.765325,12.034539,12.133285,12.179751,12.291369,12.969202,11.990287,12.100944,12.177661,12.481069,12.230365,12.471649,13.206083,10.406059,10.568036,10.436959,10.037583,9.50406,9.643276,10.44985,10.538796,10.408769,10.015324,9.635533,10.369058,10.462146,10.344945,10.000776,10.485661,10.137843,9.990742,11.587011,11.484569,11.359359,11.1995,11.159088,11.345903,11.59022,11.455862,11.321374,11.164673,11.231969,11.579393,11.479747,11.367892,11.20604,11.386365,11.279451,11.571726
1387,105.0,9.799549,10.200109,10.488803,10.965855,11.585246,10.354148,9.787371,10.156821,10.364737,10.937221,11.828621,9.627099,10.037844,10.378842,11.058064,10.523795,11.173862,10.844617,4.206203,4.414511,4.382636,4.037679,3.662586,3.813448,4.179346,4.463247,4.42187,3.982559,3.670597,4.260394,4.530696,4.393366,3.988027,4.345123,3.989488,3.977571,4.385714,4.358074,4.308968,4.335324,4.402309,4.600737,4.379374,4.326084,4.326112,4.332307,4.424991,4.443849,4.396425,4.365959,4.359721,4.347086,4.397782,4.923594
1405,105.0,6.141684,6.169618,6.26242,6.524948,6.945472,7.586203,6.139886,6.159316,6.168226,6.388425,7.238852,6.179803,6.228681,6.278283,6.537712,6.247167,6.514204,8.057669,4.228496,4.389414,4.275835,3.93262,3.732077,4.439562,4.242659,4.381735,4.295731,3.980163,3.755544,4.119101,4.283719,4.281916,3.99657,4.279909,3.911784,5.429524,6.174026,5.797147,5.337124,4.702629,4.105411,4.089525,6.161273,5.798272,5.384594,4.727247,4.100729,6.229378,5.866945,5.408727,4.753703,5.332617,4.657074,4.376763
1429,105.0,9.50681,9.550725,9.624314,9.829614,10.253464,10.353936,9.521422,9.562702,9.667377,9.933373,10.512385,9.617515,9.664011,9.787225,10.030888,9.613091,9.692351,10.69282,9.971787,10.329184,10.15501,9.381678,7.773458,6.454374,9.970952,10.308724,10.135357,9.337364,7.895639,9.988806,10.314039,10.127997,9.431415,10.162811,9.393688,5.709347,8.901061,8.572462,8.125229,7.442642,6.752441,6.626833,8.906093,8.585766,8.106655,7.478837,6.86809,8.991434,8.669038,8.21341,7.566269,8.109043,7.437534,6.390229
1432,105.0,18.758984,18.817601,18.747448,18.810467,19.018361,18.754177,18.752225,18.804041,18.748958,18.866036,19.057672,18.662723,18.738388,18.741479,18.879408,18.791539,18.834376,18.90469,7.565781,7.398509,7.577445,8.119094,9.532376,10.935555,7.566488,7.394151,7.47655,8.2275,9.565473,7.620764,7.417083,7.631334,8.264367,7.567164,8.208343,12.454291,9.658764,9.89821,10.266061,10.900127,11.971472,12.521398,9.64613,9.899426,10.23024,10.920176,11.998819,9.579978,9.835864,10.218674,10.936075,10.261727,10.929963,13.513046
1435,105.0,8.828749,8.641568,8.673556,8.620373,8.484393,10.527168,8.868821,8.649735,8.713976,8.597564,8.594404,8.97691,8.742117,8.780655,8.672299,8.69916,8.587048,10.500574,15.141519,15.375009,15.049011,13.96514,11.859897,10.004658,15.156372,15.312828,15.003073,13.844296,11.910545,14.663307,15.023402,14.852601,13.856201,15.04291,13.994123,8.341663,11.481724,10.998875,10.314022,9.199897,7.694961,6.912656,11.479734,10.988331,10.325496,9.232993,7.678436,11.50683,11.024117,10.348473,9.220262,10.326615,9.204965,5.785449
1453,105.0,13.750644,13.814615,13.75945,13.739193,13.686299,12.825317,13.768012,13.792594,13.662427,13.769771,13.782663,13.614721,13.744624,13.70867,13.815573,13.761195,13.849156,12.912724,6.077812,6.102074,6.01209,5.96973,6.095295,6.590851,6.094933,6.061304,6.061096,5.98447,6.17081,6.235741,6.311467,6.261944,6.086349,6.00409,5.923994,7.295905,6.945744,6.861548,6.830539,6.938242,7.369614,7.576838,6.953028,6.860211,6.824798,7.007673,7.329715,6.9913,6.909382,6.872962,6.963847,6.826206,6.953348,8.008742
1458,105.0,16.058249,16.118455,16.087791,15.902697,15.689957,14.978518,16.062331,16.070344,15.988443,15.959022,15.526309,15.91835,15.95349,15.882352,15.768311,16.133197,16.121761,14.945432,9.189913,9.198487,9.093598,8.987705,9.109668,9.348344,9.187422,9.160065,9.098105,9.087425,9.077583,9.15376,9.142614,9.080145,9.061617,9.114271,8.978094,9.706293,11.699013,11.80727,11.891628,12.172399,12.680421,12.884542,11.718831,11.760983,11.916085,12.237037,12.652323,11.701231,11.790181,11.922644,12.214832,11.94281,12.211213,13.311124
1463,105.0,15.243827,14.908777,14.703031,14.520097,14.202643,15.657362,15.249598,14.914029,14.75285,14.497042,14.298438,15.272885,14.951198,14.802504,14.551804,14.732138,14.397349,15.477253,13.306956,13.109629,13.160629,13.374042,14.130704,15.122388,13.255174,13.130858,13.188662,13.428041,14.148598,13.291834,13.134275,13.24326,13.431765,13.157942,13.382721,16.048521,11.704899,11.873475,12.129139,12.515624,13.069666,13.482296,11.7025,11.878405,12.124294,12.526902,13.034366,11.699322,11.86932,12.113784,12.499514,12.120849,12.510765,14.01724
1466,105.0,11.784747,11.772639,11.791143,11.786517,11.952903,11.801481,11.764676,11.74707,11.766253,11.893508,11.806137,11.715471,11.742647,11.723998,11.78515,11.789078,11.813418,12.062424,4.200482,4.381841,4.262243,3.873255,3.259474,3.431904,4.209132,4.398731,4.272456,3.922548,3.274075,4.133158,4.312158,4.287625,3.945015,4.250721,3.882137,4.192285,5.939393,5.763551,5.521815,5.251583,5.098143,5.192235,5.940689,5.767524,5.525711,5.273317,5.099666,5.936625,5.743974,5.505603,5.253796,5.518493,5.264294,5.52974
1468,105.0,7.064185,6.865703,6.877247,6.792642,6.878986,8.246264,7.096386,6.899972,6.869509,6.800386,7.243314,7.115479,6.913314,6.93276,6.983016,6.848855,6.75543,8.341669,20.559772,20.941596,20.58192,19.311584,16.834928,13.919363,20.571671,20.95383,20.548073,19.209549,16.723824,20.532069,20.865265,20.469481,19.158683,20.568435,19.296778,12.095841,19.032494,18.516634,17.737446,16.458451,14.602879,12.890186,19.042863,18.510881,17.770904,16.518645,14.516629,19.069126,18.543494,17.768116,16.450389,17.742711,16.433495,11.377293
1470,105.0,13.776314,14.001091,14.148832,14.544877,15.247225,14.322122,13.783324,13.979743,14.101239,14.599082,15.493842,13.856644,14.030507,14.20878,14.807808,14.167025,14.617503,14.943568,7.88941,8.126451,8.020466,7.629934,6.961588,6.557028,7.922855,8.111431,8.052396,7.647514,7.015872,8.023321,8.266526,8.187708,7.765078,8.038333,7.602658,6.582242,7.378608,7.240633,7.087856,6.971104,7.144978,7.184597,7.386137,7.234382,7.085013,7.016437,7.159842,7.427225,7.272868,7.108157,7.017319,7.083343,6.976028,7.656975
1479,105.0,8.02027,8.007117,8.027115,8.220658,8.446094,9.152479,8.004392,7.98206,8.105373,8.294883,8.924527,8.183851,8.201523,8.323691,8.606883,8.050962,8.153629,9.321365,10.238514,10.593721,10.592867,10.013816,8.391139,6.924406,10.237242,10.573586,10.551449,9.931171,8.509946,10.190096,10.530745,10.525481,10.007559,10.587302,10.029184,5.898488,9.858845,9.42805,8.854139,8.111006,7.197864,6.77312,9.868466,9.440093,8.864823,8.118766,7.201085,9.865032,9.440001,8.904758,8.119055,8.845088,8.104545,6.407388
1480,105.0,15.246074,15.348283,15.468462,15.925264,16.018912,14.637114,15.253796,15.335913,15.490845,15.704821,16.215507,15.206025,15.349433,15.472978,15.890693,15.40651,15.76304,14.993285,6.63284,7.07407,6.974065,6.059982,4.372527,3.613665,6.627914,7.087689,6.951756,6.024936,4.423073,6.339978,6.789316,6.814126,5.958703,6.959171,6.055976,3.213019,5.246433,4.980709,4.621752,4.304737,4.209551,4.328346,5.24046,4.964405,4.666847,4.409938,4.312569,5.353012,5.108916,4.803013,4.455463,4.634453,4.284616,4.637195
1486,105.0,15.267831,15.641828,15.906649,16.59167,17.284673,15.388871,15.290778,15.651312,15.841052,16.589703,17.450976,15.330742,15.697222,16.006836,16.801544,15.944457,16.625714,15.851531,11.985627,12.252794,11.913685,10.766416,8.299911,6.295731,12.040573,12.244547,11.895246,10.649737,8.302986,11.833554,12.096919,11.829032,10.642971,11.934971,10.752947,4.651837,8.62494,8.136075,7.466469,6.367526,4.715595,3.854185,8.620977,8.141753,7.522362,6.367698,4.669023,8.66023,8.174321,7.497907,6.330009,7.462052,6.297631,2.997624
1494,105.0,11.053702,11.022978,10.999239,11.048027,11.134438,11.457718,11.05514,11.005877,11.026572,10.936504,11.225209,10.956639,10.935852,10.876978,11.000284,10.968162,10.98061,11.483716,19.114246,19.467584,19.440893,18.651673,16.793387,15.020681,19.103899,19.526742,19.407644,18.614226,16.890134,19.005695,19.430998,19.436124,18.716217,19.381452,18.618539,13.42938,18.819938,18.320481,17.612211,16.423649,14.869329,14.008942,18.829088,18.324825,17.609152,16.47518,14.890397,18.885703,18.377466,17.669154,16.487688,17.609801,16.426759,12.794284
1510,105.0,14.854351,15.19439,15.434333,15.814771,16.224222,15.405992,14.828996,15.183818,15.304271,15.709126,16.401486,14.69876,15.122085,15.296494,15.775201,15.42194,15.92711,16.019396,7.261086,7.227282,7.058505,6.897582,7.171104,8.217913,7.250857,7.222965,7.091894,6.952137,7.284145,7.168929,7.197153,7.103675,6.965068,7.054516,6.89869,9.104505,7.149199,7.38416,7.740416,8.443958,9.581355,10.487757,7.156853,7.363697,7.719391,8.414855,9.601039,7.156635,7.363156,7.717685,8.442307,7.753308,8.468261,11.516648
1511,105.0,12.214749,12.474568,12.605696,12.825101,12.875207,11.76661,12.23086,12.485155,12.523351,12.686202,12.869627,12.224959,12.475436,12.541103,12.735978,12.532069,12.738833,11.822742,7.9217,8.202383,8.044052,7.383561,5.719229,3.977473,7.917207,8.15308,8.044118,7.378752,5.703367,7.528924,7.868088,7.841508,7.296724,8.08714,7.414456,3.170826,5.898916,5.529126,5.045102,4.36456,3.819888,3.806232,5.89941,5.522885,5.028807,4.382465,3.864969,5.894921,5.527822,5.02999,4.353279,5.047327,4.374524,3.881283
1518,105.0,7.10956,7.20541,7.189314,7.368726,7.53287,7.72326,7.089053,7.122485,7.206485,7.251425,7.731798,7.046109,7.198469,7.278412,7.39563,7.244453,7.358364,7.973102,16.096075,16.306403,15.943548,14.955322,12.90065,10.924921,16.100124,16.28041,15.903519,14.930447,12.989988,15.973293,16.210388,15.884609,14.927047,15.961366,14.959752,9.544731,12.273366,11.821134,11.204326,10.179991,8.729999,7.767828,12.277589,11.840217,11.203477,10.16779,8.796542,12.325717,11.868309,11.242417,10.213594,11.185708,10.14374,6.882089
